SET
I  first /1*66/
K(I)  depot1 /1*6/
O(I)  node1 /7*66/
alias(I,J);
alias(K,L);
alias(O,P);
TABLE C(I,J)  node to node
                          1                         2                         3                         4                         5                         6                         7                         8                         9                         10                        11                        12                        13                        14                        15                        16                        17                        18                        19                        20                        21                        22                        23                        24                        25                        26                        27                        28                        29                        30                        31                        32                        33                        34                        35                        36                        37                        38                        39                        40                        41                        42                        43                        44                        45                        46                        47                        48                        49                        50                        51                        52                        53                        54                        55                        56                        57                        58                        59                        60                        61                        62                        63                        64                        65                        66                        
1                         99999.0                   99999.0                   99999.0                   99999.0                   99999.0                   99999.0                   157.7149                  150.6154                  144.2221                  163.3677                  103.1601                  204.5018                  158.1518                  124.1451                  32.9848                   33.0606                   158.619                   163.2176                  135.4474                  146.7685                  12.0416                   19.8494                   156.9235                  21.4709                   43.0116                   128.0625                  11.4018                   171.19                    181.1574                  156.3202                  201.6358                  42.2966                   217.7935                  11.0                      140.4315                  35.3553                   150.1466                  144.4991                  26.2488                   197.4968                  154.0552                  89.1964                   208.9426                  100.6231                  70.8378                   160.0312                  153.0751                  144.4195                  181.1077                  86.8159                   203.3839                  154.7805                  209.38                    140.289                   198.3129                  88.2326                   156.0128                  128.39                    202.0891                  161.929                   75.5381                   145.6194                  151.7959                  197.717                   36.1248                   105.3613                  
2                         99999.0                   99999.0                   99999.0                   99999.0                   99999.0                   99999.0                   169.9235                  82.7345                   120.0                     86.539                    116.9701                  155.631                   82.2922                   144.4022                  78.7909                   84.6936                   79.2465                   89.8888                   151.6113                  159.8155                  68.0074                   66.2873                   135.0                     61.8142                   89.9444                   148.8624                  77.7817                   111.8302                  153.9415                  76.6551                   147.0272                  85.9593                   171.3301                  69.0                      156.0801                  82.7647                   113.7717                  159.2482                  76.2168                   148.4756                  165.0848                  30.2655                   158.4203                  96.566                    54.2033                   83.006                    80.4487                   159.6778                  134.4619                  36.0139                   152.5942                  78.721                    160.9969                  156.9745                  148.4857                  27.2947                   76.0263                   145.8904                  148.1891                  119.9208                  10.2956                   86.2844                   74.8465                   144.4022                  85.0                      112.6987                  
3                         99999.0                   99999.0                   99999.0                   99999.0                   99999.0                   99999.0                   213.7148                  61.6847                   144.2221                  33.0                      171.8197                  139.3592                  36.4966                   197.717                   155.3319                  161.4094                  14.1421                   48.1664                   201.0622                  205.7693                  148.0034                  145.5816                  156.9235                  141.3542                  164.7119                  201.792                   157.3849                  92.228                    165.463                   10.7703                   124.004                   160.5895                  155.158                   149.0                     204.4529                  158.9025                  127.059                   206.4946                  154.0422                  133.7348                  208.7415                  81.7068                   139.0575                  146.0308                  116.8674                  31.1448                   48.0833                   207.2125                  127.122                   88.6397                   134.1827                  35.171                    144.2221                  205.915                   132.5443                  80.6536                   4.4721                    197.1903                  126.0159                  123.8588                  85.4751                   80.5295                   31.0161                   124.1451                  161.0745                  164.6238                  
4                         99999.0                   99999.0                   99999.0                   99999.0                   99999.0                   99999.0                   15.2971                   172.4094                  89.4427                   204.2768                  62.6259                   151.4629                  197.717                   36.4966                   128.2498                  127.0157                  215.1279                  192.0417                  27.313                    20.5183                   159.4522                  147.7633                  83.8153                   151.1985                  117.0043                  32.249                    149.0302                  160.5802                  97.2522                   216.4163                  163.0245                  118.1059                  153.0817                  160.3777                  22.8254                   125.1                     110.9234                  20.0                      135.2368                  148.4756                  19.3132                   154.7773                  157.4071                  83.2166                   124.8119                  203.1994                  185.235                   19.4165                   136.8211                  147.0272                  155.1934                  196.6647                  152.8398                  21.9317                   150.6254                  157.3054                  222.036                   33.5261                   161.6168                  122.5602                  168.6001                  153.1176                  198.3986                  158.1518                  124.0363                  66.1891                   
5                         99999.0                   99999.0                   99999.0                   99999.0                   99999.0                   99999.0                   65.0692                   117.8346                  40.0                      150.0966                  83.4386                   73.0821                   144.4022                  82.2922                   146.8605                  149.0403                  165.5295                  135.3514                  73.3894                   66.4906                   172.9306                  160.7296                  25.0                      161.929                   141.1737                  82.4621                   167.72                    94.7945                   18.3848                   168.1547                  86.8159                   139.8177                  73.171                    174.2441                  71.8401                   145.7738                  52.0                      69.857                    153.0                     71.3092                   62.3939                   130.0615                  78.848                    78.2624                   116.1809                  150.2332                  131.727                   70.8308                   63.2456                   124.004                   77.4919                   144.6271                  73.7564                   73.7631                   73.5391                   133.0601                  175.3283                  76.9675                   85.0882                   56.4004                   151.0828                  98.4124                   148.0608                  82.2922                   145.9623                  77.3369                   
6                         99999.0                   99999.0                   99999.0                   99999.0                   99999.0                   99999.0                   145.031                   104.1393                  89.4427                   127.0                     151.0033                  23.2594                   124.1451                  158.1518                  198.7159                  202.7141                  146.0137                  112.0714                  151.0828                  145.6743                  217.2211                  206.48                    83.8153                   205.8665                  197.4082                  159.2482                  216.4486                  70.6116                   63.3877                   150.0533                  36.0139                   194.805                   8.6023                    218.6344                  150.3363                  199.1231                  76.8375                   148.8624                  203.2954                  30.4138                   142.1724                  150.5855                  21.3776                   134.6291                  155.6213                  129.0349                  114.8564                  149.8566                  45.607                    148.1114                  26.9258                   126.321                   17.8885                   152.3187                  30.4631                   153.1829                  158.0506                  153.3754                  34.0588                   64.3506                   173.2801                  93.4077                   131.461                   36.4966                   200.0625                  142.762                   
7                         157.7149                  169.9235                  213.7148                  15.2971                   65.0692                   145.031                   99999.0                   158.6726                  74.793                    190.7905                  56.3205                   136.1947                  184.2878                  34.2053                   125.1958                  124.6796                  202.2325                  178.219                   22.3607                   11.0                      156.0288                  144.0                     68.6222                   147.0544                  114.8564                  31.0161                   146.4923                  145.7944                  82.0975                   203.6909                  147.7329                  115.434                   138.0145                  157.0509                  17.4642                   122.4091                  96.1769                   13.3417                   132.1855                  133.1803                  5.0                       144.5337                  142.1443                  73.4098                   116.3787                  189.842                   171.7032                  13.6015                   121.5648                  136.8832                  139.9035                  183.3712                  137.6154                  18.0278                   135.3292                  147.1768                  209.5376                  29.4279                   146.3216                  107.5407                  159.6997                  139.2013                  185.3106                  142.8636                  121.5936                  57.9741                   
8                         150.6154                  82.7345                   61.6847                   172.4094                  117.8346                  104.1393                  158.6726                  99999.0                   85.5862                   32.6497                   125.5906                  81.7435                   26.6271                   148.4756                  133.5552                  139.2623                  47.927                    19.7231                   149.3754                  152.0526                  139.2049                  131.9129                  97.0052                   129.244                   138.8128                  152.0691                  143.8923                  33.541                    103.8701                  50.9215                   68.9638                   134.9518                  98.0051                   140.5276                  152.0132                  135.9596                  66.6108                   153.3786                  135.0926                  75.326                    153.8376                  61.7171                   82.7647                   99.2975                   86.7006                   32.45                     13.8924                   154.2077                  66.3702                   63.9062                   77.2787                   26.8328                   86.977                    153.701                   74.5453                   63.1348                   58.5235                   146.7685                  70.6045                   62.2415                   80.604                    19.8494                   30.6757                   67.6831                   137.7679                  117.1751                  
9                         144.2221                  120.0                     144.2221                  89.4427                   40.0                      89.4427                   74.793                    85.5862                   99999.0                   118.1905                  61.9839                   72.5328                   111.9464                  74.108                    113.7014                  116.8461                  131.6055                  104.69                    70.6116                   70.0071                   137.0584                  125.1958                  15.0                      125.7816                  110.3177                  76.4199                   133.4541                  71.1758                   37.1214                   133.7012                  79.1012                   108.2081                  80.9568                   138.4233                  71.8401                   113.3578                  21.5407                   72.111                    119.2015                  67.2681                   70.2353                   90.0888                   78.339                    46.0977                   77.8332                   117.686                   99.1564                   73.0548                   52.1536                   84.006                    74.3303                   111.5213                  75.8947                   73.7631                   69.0507                   93.086                    140.3567                  70.4557                   78.2304                   34.3657                   111.1126                  65.7647                   114.2016                  74.108                    113.9517                  53.4883                   
10                        163.3677                  86.539                    33.0                      204.2768                  150.0966                  127.0                     190.7905                  32.6497                   118.1905                  99999.0                   154.7417                  106.4707                  6.7082                    178.8771                  152.0033                  158.0                     19.105                    15.5242                   180.5685                  183.8314                  151.4199                  146.3728                  129.6302                  142.8636                  159.3142                  182.6499                  158.5339                  59.9083                   135.5323                  23.3452                   91.0055                   155.2611                  122.2007                  152.6106                  183.4394                  155.0129                  99.2018                   185.0                     152.2104                  100.9752                  185.914                   76.0592                   106.0754                  128.3511                  107.912                   3.6056                    19.105                    185.801                   95.2103                   81.0555                   101.2423                  9.0554                    111.2879                  185.0676                  99.7246                   76.2365                   31.257                    177.5528                  93.0215                   94.0213                   88.3233                   52.4976                   11.7047                   91.1976                   157.0287                  146.7106                  
11                        103.1601                  116.9701                  171.8197                  62.6259                   83.4386                   151.0033                  56.3205                   125.5906                  61.9839                   154.7417                  99999.0                   134.4805                  148.0338                  27.4591                   70.214                    70.6045                   162.2899                  145.031                   35.4401                   45.3982                   100.4042                  88.2043                   68.0955                   91.022                    61.3514                   31.9061                   91.7824                   124.4026                  92.0869                   162.8066                  139.9035                  61.131                    142.6184                  101.4938                  40.2616                   67.9117                   79.7621                   43.9318                   77.1038                   129.031                   52.0865                   94.921                    140.2462                  26.4008                   62.7694                   152.9575                  136.565                   44.1475                   113.3578                  87.1149                   136.0625                  146.2498                  137.8768                  40.8044                   130.7287                  97.1854                   167.4097                  29.1548                   139.2623                  94.0479                   106.6771                  108.6692                  146.8605                  134.9741                  67.4463                   9.0                       
12                        204.5018                  155.631                   139.3592                  151.4629                  73.0821                   23.2594                   136.1947                  81.7435                   72.5328                   106.4707                  134.4805                  99999.0                   103.0776                  144.7791                  177.8004                  182.044                   125.2557                  91.1976                   139.0575                  135.1814                  195.1615                  184.6646                  70.1142                   183.8532                  177.2484                  146.4138                  194.9179                  48.2597                   54.8179                   129.1395                  17.4929                   174.4534                  16.2788                   196.5757                  139.0036                  178.4405                  56.8243                   138.0906                  182.0989                  7.2111                    132.7403                  127.4245                  6.0                       115.8706                  133.6899                  108.2266                  93.086                    139.0899                  23.4307                   125.1                     5.831                     105.0048                  5.3852                    141.0035                  7.2801                    130.0                     137.1313                  140.4315                  15.2643                   43.2666                   150.0833                  70.2282                   110.0045                  15.5242                   179.4937                  125.873                   
13                        158.1518                  82.2922                   36.4966                   197.717                   144.4022                  124.1451                  184.2878                  26.6271                   111.9464                  6.7082                    148.0338                  103.0776                  99999.0                   172.1859                  146.0548                  152.0296                  22.3607                   12.1655                   173.9253                  177.2597                  146.2498                  140.89                    123.6002                  137.4809                  153.16                    175.9659                  153.0555                  55.7315                   130.1461                  26.0768                   88.1419                   149.1208                  119.0042                  147.4619                  176.8191                  149.0034                  93.2309                   178.404                   146.4138                  97.3293                   179.4018                  70.2567                   103.0194                  121.6429                  101.5972                  5.831                     12.8062                   179.201                   90.7083                   75.0                      98.0051                   3.6056                    108.0185                  178.4405                  96.1873                   70.5762                   34.0588                   170.8801                  90.0888                   88.5494                   83.4865                   46.4004                   8.6023                    88.0                      151.0                     140.0036                  
14                        124.1451                  144.4022                  197.717                   36.4966                   82.2922                   158.1518                  34.2053                   148.4756                  74.108                    178.8771                  27.4591                   144.7791                  172.1859                  99999.0                   92.0217                   91.0879                   187.6273                  168.1547                  12.083                    23.7697                   123.1463                  111.3643                  74.8131                   114.7388                  81.1542                   4.4721                    113.0398                  142.8636                  95.5092                   188.4038                  153.0                     82.0061                   150.2332                  124.1008                  16.7631                   89.0056                   94.7629                   20.8806                   99.0202                   140.289                   31.3847                   122.1475                  150.7481                  51.7397                   90.2109                   177.3415                  160.2623                  20.6155                   126.0                     114.3372                  147.3397                  170.6605                  147.3635                  16.2788                   142.2252                  124.4709                  193.3494                  5.6569                    152.0132                  108.3744                  134.1119                  130.3879                  171.6799                  148.0                     88.0511                   33.2415                   
15                        32.9848                   78.7909                   155.3319                  128.2498                  146.8605                  198.7159                  125.1958                  133.5552                  113.7014                  152.0033                  70.214                    177.8004                  146.0548                  92.0217                   99999.0                   6.0828                    151.0761                  148.8624                  103.0437                  114.2147                  31.257                    20.2485                   125.6702                  24.5967                   13.0384                   96.0833                   21.587                    149.1643                  150.2065                  149.6262                  176.8191                  10.4403                   190.1421                  32.1403                   108.0417                  4.2426                    121.918                   112.0714                  7.0                       171.0117                  121.4125                  76.0263                   182.628                   68.7968                   47.4342                   149.0034                  138.7083                  112.0402                  154.4021                  71.1126                   177.2823                  143.014                   182.4281                  108.0046                  172.0465                  76.1643                   151.0099                  96.0208                   177.0198                  134.6291                  70.8378                   124.92                    141.0319                  172.5688                  6.4031                    72.4224                   
16                        33.0606                   84.6936                   161.4094                  127.0157                  149.0403                  202.7141                  124.6796                  139.2623                  116.8461                  158.0                     70.6045                   182.044                   152.0296                  91.0879                   6.0828                    99999.0                   157.1528                  154.7288                  102.3963                  113.7453                  33.5261                   23.8537                   128.4056                  28.6007                   10.0499                   95.0211                   22.0227                   154.3146                  153.0523                  155.7081                  181.4663                  9.4868                    194.1262                  34.2053                   107.3778                  3.6056                    125.8769                  111.4495                  10.0                      175.3169                  121.062                   82.0549                   186.9545                  71.4003                   52.8867                   155.0129                  144.5856                  111.3643                  158.6852                  77.0584                   181.6645                  149.0034                  186.6039                  107.2287                  176.4001                  82.2192                   157.0891                  95.3362                   181.6177                  138.8092                  76.844                    130.292                   147.0544                  177.1581                  3.1623                    73.5391                   
17                        158.619                   79.2465                   14.1421                   215.1279                  165.5295                  146.0137                  202.2325                  47.927                    131.6055                  19.105                    162.2899                  125.2557                  22.3607                   187.6273                  151.0761                  157.1528                  99999.0                   34.0588                   190.3943                  194.6099                  146.5776                  143.0035                  143.9618                  139.0575                  159.6559                  191.6038                  155.029                   78.0897                   151.7959                  4.4721                    110.0045                  155.541                   141.0886                  147.6652                  193.6104                  154.4345                  113.8771                  195.4891                  150.4028                  119.6035                  197.2841                  75.71                     125.016                   136.18                    110.0636                  17.0294                   34.176                    196.2371                  113.031                   82.0061                   120.1041                  21.1896                   130.1384                  195.1333                  118.423                   75.1332                   12.1655                   186.8154                  112.0                     110.1681                  83.1505                   67.1193                   17.4929                   110.0727                  156.5535                  154.7676                  
18                        163.2176                  89.8888                   48.1664                   192.0417                  135.3514                  112.0714                  178.219                   19.7231                   104.69                    15.5242                   145.031                   91.1976                   12.1655                   168.1547                  148.8624                  154.7288                  34.0588                   99999.0                   169.0976                  171.712                   151.4761                  145.279                   115.5206                  142.1724                  155.0806                  171.7673                  157.4103                  44.3847                   120.4409                  38.0                      76.0592                   151.1192                  107.042                   152.7383                  171.7236                  151.5586                  85.0412                   173.0665                  149.7765                  85.5862                   173.4042                  74.2159                   91.0                      118.6802                  103.0049                  17.0294                   10.198                    173.8994                  79.6994                   77.9295                   86.0523                   14.8661                   96.0833                   173.4157                  84.3801                   75.0                      46.0                      166.4812                  78.0256                   79.0759                   89.8999                   39.0512                   20.2485                   76.0263                   153.4699                  136.6931                  
19                        135.4474                  151.6113                  201.0622                  27.313                    73.3894                   151.0828                  22.3607                   149.3754                  70.6116                   180.5685                  35.4401                   139.0575                  173.9253                  12.083                    103.0437                  102.3963                  190.3943                  169.0976                  99999.0                   11.7047                   134.0037                  122.0656                  69.0                      125.2557                  92.5419                   9.8995                    124.2578                  141.039                   87.8635                   191.4419                  148.4082                  93.1933                   143.4015                  135.0                     5.0                       100.1798                  91.9239                   9.0554                    110.0409                  135.0148                  19.3132                   127.8828                  145.0552                  56.4004                   97.509                    179.254                   161.6972                  9.0                       121.499                   120.1041                  142.0035                  172.6297                  141.2869                  5.3852                    137.0328                  130.3572                  196.7587                  7.0711                    147.2753                  104.9238                  141.3223                  130.6484                  174.0115                  143.4225                  99.3227                   38.9487                   
20                        146.7685                  159.8155                  205.7693                  20.5183                   66.4906                   145.6743                  11.0                      152.0526                  70.0071                   183.8314                  45.3982                   135.1814                  177.2597                  23.7697                   114.2147                  113.7453                  194.6099                  171.712                   11.7047                   99999.0                   145.031                   133.0                     65.9242                   136.0588                  103.9471                  21.095                    135.5323                  141.1559                  82.2982                   195.9005                  145.6709                  104.4797                  138.2932                  146.0548                  7.2111                    111.4495                  91.5478                   3.6056                    121.2023                  131.6435                  7.6158                    134.9704                  141.1737                  63.5295                   106.0424                  182.7266                  164.8059                  4.4721                    119.0504                  127.2635                  138.5208                  176.1817                  137.0146                  8.4853                    133.7348                  137.5573                  201.5366                  18.6815                   144.3918                  103.7401                  149.5627                  132.8533                  177.8904                  140.7302                  110.6526                  47.4342                   
21                        12.0416                   68.0074                   148.0034                  159.4522                  172.9306                  217.2211                  156.0288                  139.2049                  137.0584                  151.4199                  100.4042                  195.1615                  146.2498                  123.1463                  31.257                    33.5261                   146.5776                  151.4761                  134.0037                  145.031                   99999.0                   12.3693                   150.2664                  11.4018                   43.4166                   127.2517                  13.4536                   160.5895                  174.1522                  144.281                   191.6716                  41.5933                   208.7989                  1.4142                    139.0036                  34.7131                   141.651                   143.0                     24.3311                   188.0957                  152.1184                  77.6209                   199.4492                  94.921                    61.6198                   148.0709                  141.3542                  143.0035                  171.84                    75.591                    193.8298                  142.8636                  200.1225                  139.0324                  188.8306                  76.5506                   144.0035                  127.0157                  192.2004                  152.9706                  63.5059                   134.8332                  139.832                   187.8643                  36.1386                   101.6071                  
22                        19.8494                   66.2873                   145.5816                  147.7633                  160.7296                  206.48                    144.0                     131.9129                  125.1958                  146.3728                  88.2043                   184.6646                  140.89                    111.3643                  20.2485                   23.8537                   143.0035                  145.279                   122.0656                  133.0                     12.3693                   99999.0                   138.2353                  5.0                       33.1059                   115.5249                  12.1655                   151.6047                  162.2467                  141.0319                  181.8158                  30.6757                   198.0101                  13.6015                   127.063                   24.1661                   130.4837                  131.0343                  13.8924                   177.6542                  140.0321                  71.0634                   189.0952                  82.6378                   50.9902                   143.1363                  135.0926                  131.0611                  161.2762                  68.0074                   183.5347                  137.6118                  189.5521                  127.1417                  178.4657                  70.406                    141.4284                  115.1086                  182.2581                  142.1443                  60.1332                   126.1784                  134.9518                  177.882                   25.9422                   89.2693                   
23                        156.9235                  135.0                     156.9235                  83.8153                   25.0                      83.8153                   68.6222                   97.0052                   15.0                      129.6302                  68.0955                   70.1142                   123.6002                  74.8131                   125.6702                  128.4056                  143.9618                  115.5206                  69.0                      65.9242                   150.2664                  138.2353                  99999.0                   139.0899                  121.2642                  76.3217                   145.9623                  78.492                    24.7588                   146.2908                  79.7621                   119.4738                  75.6902                   151.6113                  69.1809                   125.0                     30.4795                   68.593                    131.4686                  66.0303                   64.56                     105.0762                  76.1052                   57.0088                   92.0489                   129.4025                  110.8016                  69.5845                   53.1507                   99.0051                   73.0068                   123.4585                  72.5603                   71.1758                   68.0661                   108.074                   153.1829                  70.3491                   78.5175                   39.4462                   126.0992                  77.201                    126.4792                  74.8131                   125.4193                  60.4649                   
24                        21.4709                   61.8142                   141.3542                  151.1985                  161.929                   205.8665                  147.0544                  129.244                   125.7816                  142.8636                  91.022                    183.8532                  137.4809                  114.7388                  24.5967                   28.6007                   139.0575                  142.1724                  125.2557                  136.0588                  11.4018                   5.0                       139.0899                  99999.0                   37.5899                   118.9496                  16.0312                   149.7899                  162.8895                  137.0                     180.5436                  34.9285                   197.4361                  12.8062                   130.2459                  28.6531                   130.2498                  134.1827                  18.6011                   176.7993                  143.0035                  68.0074                   188.1755                  84.119                    50.2494                   139.5887                  132.0038                  134.2386                  160.5148                  65.3911                   182.5705                  134.1641                  188.7988                  130.384                   177.5528                  67.1863                   137.2334                  118.3427                  181.0442                  141.598                   56.0089                   124.1692                  131.3811                  176.6947                  30.5287                   91.6624                   
25                        43.0116                   89.9444                   164.7119                  117.0043                  141.1737                  197.4082                  114.8564                  138.8128                  110.3177                  159.3142                  61.3514                   177.2484                  153.16                    81.1542                   13.0384                   10.0499                   159.6559                  155.0806                  92.5419                   103.9471                  43.4166                   33.1059                   121.2642                  37.5899                   99999.0                   85.0529                   32.0624                   151.7893                  146.0                     158.474                   177.5528                  4.1231                    188.8068                  44.1475                   97.5141                   8.9443                    120.6731                  101.5972                  19.3132                   170.6605                  111.3059                  84.0119                   182.3211                  64.3817                   52.1536                   156.4609                  145.031                   101.4938                  154.0195                  78.3135                   177.1581                  150.2698                  181.6645                  97.3293                   171.843                   84.5281                   160.3309                  85.4751                   177.5894                  133.9888                  81.4371                   128.5496                  148.6607                  173.1185                  7.2801                    64.846                    
26                        128.0625                  148.8624                  201.792                   32.249                    82.4621                   159.2482                  31.0161                   152.0691                  76.4199                   182.6499                  31.9061                   146.4138                  175.9659                  4.4721                    96.0833                   95.0211                   191.6038                  171.7673                  9.8995                    21.095                    127.2517                  115.5249                  76.3217                   118.9496                  85.0529                   99999.0                   117.0043                  145.7738                  96.3016                   192.4266                  155.0516                  86.0058                   151.4265                  128.1913                  13.8924                   93.0054                   97.3242                   17.8885                   103.0776                  142.088                   28.6531                   126.5069                  152.3975                  55.9017                   94.6678                   181.1574                  163.9756                  17.4642                   128.0625                  118.6971                  149.1208                  174.485                   148.8624                  13.0                      144.0555                  128.8449                  197.4335                  6.0                       154.013                   110.7655                  138.5713                  133.8245                  175.5733                  150.0533                  92.0054                   37.4833                   
27                        11.4018                   77.7817                   157.3849                  149.0302                  167.72                    216.4486                  146.4923                  143.8923                  133.4541                  158.5339                  91.7824                   194.9179                  153.0555                  113.0398                  21.587                    22.0227                   155.029                   157.4103                  124.2578                  135.5323                  13.4536                   12.1655                   145.9623                  16.0312                   32.0624                   117.0043                  99999.0                   162.9847                  170.2939                  153.0033                  192.6266                  31.0644                   207.9327                  13.6015                   129.2478                  24.0832                   140.0357                  133.3042                  14.8661                   187.9707                  142.7901                  83.1986                   199.4818                  89.4707                   61.6117                   155.2933                  147.2209                  133.2404                  171.4934                  80.0062                   193.982                   149.7765                  199.7248                  129.1395                  188.8544                  82.5651                   153.2645                  117.2092                  193.0026                  152.1085                  72.0278                   137.7425                  147.1054                  188.6001                  25.0                      93.9628                   
28                        171.19                    111.8302                  92.228                    160.5802                  94.7945                   70.6116                   145.7944                  33.541                    71.1758                   59.9083                   124.4026                  48.2597                   55.7315                   142.8636                  149.1643                  154.3146                  78.0897                   44.3847                   141.039                   141.1559                  160.5895                  151.6047                  78.492                    149.7899                  151.7893                  145.7738                  162.9847                  99999.0                   78.4092                   81.7435                   35.8469                   148.3273                  64.4981                   161.9784                  142.678                   150.7846                  49.6588                   143.1712                  152.0691                  42.0119                   141.3259                  86.267                    49.2443                   100.005                   101.9804                  61.1882                   45.0111                   144.1007                  35.4683                   85.9127                   43.7379                   57.3149                   53.4603                   144.5579                  41.1096                   88.4138                   89.6772                   139.9786                  37.3363                   39.2046                   107.8147                  26.1725                   62.1289                   34.2053                   152.2793                  115.434                   
29                        181.1574                  153.9415                  165.463                   97.2522                   18.3848                   63.3877                   82.0975                   103.8701                  37.1214                   135.5323                  92.0869                   54.8179                   130.1461                  95.5092                   150.2065                  153.0523                  151.7959                  120.4409                  87.8635                   82.2982                   174.1522                  162.2467                  24.7588                   162.8895                  146.0                     96.3016                   170.2939                  78.4092                   99999.0                   154.6932                  68.4471                   144.17                    56.0357                   175.5135                  86.977                    149.6262                  41.1096                   85.4751                   155.9006                  52.9245                   79.0                      123.6851                  60.6383                   81.6884                   114.7693                  135.9559                  117.686                   86.4696                   45.4533                   118.3765                  59.1354                   130.679                   55.7315                   88.955                    55.1543                   126.6689                  162.1172                  90.5207                   66.7083                   41.6293                   145.6709                  85.0941                   134.4619                  63.9531                   150.0833                  84.8116                   
30                        156.3202                  76.6551                   10.7703                   216.4163                  168.1547                  150.0533                  203.6909                  50.9215                   133.7012                  23.3452                   162.8066                  129.1395                  26.0768                   188.4038                  149.6262                  155.7081                  4.4721                    38.0                      191.4419                  195.9005                  144.281                   141.0319                  146.2908                  137.0                     158.474                   192.4266                  153.0033                  81.7435                   154.6932                  99999.0                   114.0395                  154.3535                  145.031                   145.3444                  194.7434                  153.0555                  116.3615                  196.7028                  148.7582                  123.4058                  198.7285                  74.7262                   129.0                     136.8247                  109.444                   21.0238                   37.3631                   197.4361                  116.4989                  81.2712                   124.0363                  24.5153                   134.0597                  196.2371                  122.262                   73.9797                   8.0                       187.7232                  116.0172                  113.0885                  81.0062                   69.7782                   20.2485                   114.0175                  155.1934                  155.4252                  
31                        201.6358                  147.0272                  124.004                   163.0245                  86.8159                   36.0139                   147.7329                  68.9638                   79.1012                   91.0055                   139.9035                  17.4929                   88.1419                   153.0                     176.8191                  181.4663                  110.0045                  76.0592                   148.4082                  145.6709                  191.6716                  181.8158                  79.7621                   180.5436                  177.5528                  155.0516                  192.6266                  35.8469                   68.4471                   114.0395                  99999.0                   174.4706                  31.5753                   193.0803                  148.8624                  177.8679                  60.208                    148.3543                  180.5602                  15.8114                   143.9514                  120.2539                  15.2971                   118.9622                  131.0153                  93.0215                   79.0759                   149.3452                  27.0                      118.9285                  11.6619                   90.3549                   21.1896                   150.8509                  13.6015                   122.6132                  122.0369                  149.0537                  2.2361                    45.8912                   142.4114                  60.7454                   95.5249                   5.0                       179.1089                  131.0343                  
32                        42.2966                   85.9593                   160.5895                  118.1059                  139.8177                  194.805                   115.434                   134.9518                  108.2081                  155.2611                  61.131                    174.4534                  149.1208                  82.0061                   10.4403                   9.4868                    155.541                   151.1192                  93.1933                   104.4797                  41.5933                   30.6757                   119.4738                  34.9285                   4.1231                    86.0058                   31.0644                   148.3273                  144.17                    154.3535                  174.4706                  99999.0                   186.2069                  42.4264                   98.1835                   7.0                       118.0042                  102.2399                  17.2627                   167.8154                  111.7587                  79.9062                   179.4714                  62.482                    48.2597                   152.3975                  141.0567                  102.1763                  151.1721                  74.2428                   174.2642                  146.219                   178.9218                  98.0816                   168.9645                  80.4114                   156.2082                  86.1452                   174.5423                  131.1869                  77.3886                   124.908                   144.5856                  170.0735                  6.3246                    64.0781                   
33                        217.7935                  171.3301                  155.158                   153.0817                  73.171                    8.6023                    138.0145                  98.0051                   80.9568                   122.2007                  142.6184                  16.2788                   119.0042                  150.2332                  190.1421                  194.1262                  141.0886                  107.042                   143.4015                  138.2932                  208.7989                  198.0101                  75.6902                   197.4361                  188.8068                  151.4265                  207.9327                  64.4981                   56.0357                   145.031                   31.5753                   186.2069                  99999.0                   210.2118                  142.7901                  190.5361                  68.2495                   141.4284                  194.7434                  23.0868                   135.0148                  142.7796                  16.2788                   126.0516                  147.187                   124.0645                  109.2245                  142.4254                  37.4433                   140.1321                  21.0                      121.0165                  11.0454                   144.7791                  23.5372                   145.4132                  153.0294                  145.5266                  29.4279                   55.8659                   165.5295                  86.3308                   126.0635                  31.0161                   191.4706                  134.3317                  
34                        11.0                      69.0                      149.0                     160.3777                  174.2441                  218.6344                  157.0509                  140.5276                  138.4233                  152.6106                  101.4938                  196.5757                  147.4619                  124.1008                  32.1403                   34.2053                   147.6652                  152.7383                  135.0                     146.0548                  1.4142                    13.6015                   151.6113                  12.8062                   44.1475                   128.1913                  13.6015                   161.9784                  175.5135                  145.3444                  193.0803                  42.4264                   210.2118                  99999.0                   140.0                     35.5106                   143.0559                  144.0035                  25.1794                   189.5099                  153.16                    78.924                    200.8631                  96.2081                   63.0317                   149.2548                  142.6219                  144.0                     173.2541                  76.9415                   195.2434                  144.0694                  201.5366                  140.0143                  190.2446                  77.8332                   145.0138                  128.0039                  193.6104                  154.3826                  64.6297                   136.2131                  141.0142                  189.2749                  36.8782                   102.7716                  
35                        140.4315                  156.0801                  204.4529                  22.8254                   71.8401                   150.3363                  17.4642                   152.0132                  71.8401                   183.4394                  40.2616                   139.0036                  176.8191                  16.7631                   108.0417                  107.3778                  193.6104                  171.7236                  5.0                       7.2111                    139.0036                  127.063                   69.1809                   130.2459                  97.5141                   13.8924                   129.2478                  142.678                   86.977                    194.7434                  148.8624                  98.1835                   142.7901                  140.0                     99999.0                   105.1713                  93.3006                   4.1231                    115.0391                  135.1814                  14.7648                   132.0189                  145.0034                  60.4649                   102.0441                  182.2004                  164.5023                  4.0                       122.0533                  124.2578                  142.1267                  175.6018                  141.0567                  2.0                       137.2334                  134.5288                  200.1724                  12.0416                   147.6652                  105.9906                  145.7978                  133.094                   177.1017                  143.8923                  104.3072                  43.382                    
36                        35.3553                   82.7647                   158.9025                  125.1                     145.7738                  199.1231                  122.4091                  135.9596                  113.3578                  155.0129                  67.9117                   178.4405                  149.0034                  89.0056                   4.2426                    3.6056                    154.4345                  151.5586                  100.1798                  111.4495                  34.7131                   24.1661                   125.0                     28.6531                   8.9443                    93.0054                   24.0832                   150.7846                  149.6262                  153.0555                  177.8679                  7.0                       190.5361                  35.5106                   105.1713                  99999.0                   122.2865                  109.2245                  10.4403                   171.712                   118.7139                  79.1581                   183.3494                  68.0074                   49.4773                   152.0526                  141.4284                  109.165                   155.0806                  74.0068                   178.059                   146.0034                  183.0027                  105.0762                  172.7947                  79.404                    154.5639                  93.1343                   178.0169                  135.2072                  74.6726                   126.8267                  144.1249                  173.5569                  2.2361                    70.5762                   
37                        150.1466                  113.7717                  127.059                   110.9234                  52.0                      76.8375                   96.1769                   66.6108                   21.5407                   99.2018                   79.7621                   56.8243                   93.2309                   94.7629                   121.918                   125.8769                  113.8771                  85.0412                   91.9239                   91.5478                   141.651                   130.4837                  30.4795                   130.2498                  120.6731                  97.3242                   140.0357                  49.6588                   41.1096                   116.3615                  60.208                    118.0042                  68.2495                   143.0559                  93.3006                   122.2865                  99999.0                   93.6376                   126.6215                  50.5668                   91.6788                   83.5464                   62.1691                   59.2368                   80.2122                   99.0454                   80.4487                   94.578                    34.176                    78.848                    57.3847                   93.1933                   61.0574                   95.2103                   52.0                      86.4928                   123.4342                  91.4112                   59.6657                   14.3178                   105.9906                  46.8722                   96.3846                   55.3173                   123.2274                  70.859                    
38                        144.4991                  159.2482                  206.4946                  20.0                      69.857                    148.8624                  13.3417                   153.3786                  72.111                    185.0                     43.9318                   138.0906                  178.404                   20.8806                   112.0714                  111.4495                  195.4891                  173.0665                  9.0554                    3.6056                    143.0                     131.0343                  68.593                    134.1827                  101.5972                  17.8885                   133.3042                  143.1712                  85.4751                   196.7028                  148.3543                  102.2399                  141.4284                  144.0035                  4.1231                    109.2245                  93.6376                   99999.0                   119.0672                  134.4507                  10.8167                   134.8332                  144.0868                  63.2851                   105.3091                  183.8314                  166.012                   1.0                       121.6553                  127.0945                  141.3542                  177.2597                  140.0                     5.0                       136.5284                  137.379                   202.2375                  16.1245                   147.1054                  106.0424                  148.9765                  134.3019                  178.8687                  143.4015                  108.3744                  46.6154                   
39                        26.2488                   76.2168                   154.0422                  135.2368                  153.0                     203.2954                  132.1855                  135.0926                  119.2015                  152.2104                  77.1038                   182.0989                  146.4138                  99.0202                   7.0                       10.0                      150.4028                  149.7765                  110.0409                  121.2023                  24.3311                   13.8924                   131.4686                  18.6011                   19.3132                   103.0776                  14.8661                   152.0691                  155.9006                  148.7582                  180.5602                  17.2627                   194.7434                  25.1794                   115.0391                  10.4403                   126.6215                  119.0672                  99999.0                   175.237                   128.39                    76.1643                   186.8154                  74.793                    50.0899                   149.1208                  139.5887                  119.0378                  158.6726                  71.8471                   181.4001                  143.2829                  186.8074                  115.0043                  176.2073                  76.0263                   149.7765                  103.0194                  180.8342                  139.0539                  68.884                    127.3892                  141.0567                  176.4001                  12.083                    79.1202                   
40                        197.4968                  148.4756                  133.7348                  148.4756                  71.3092                   30.4138                   133.1803                  75.326                    67.2681                   100.9752                  129.031                   7.2111                    97.3293                   140.289                   171.0117                  175.3169                  119.6035                  85.5862                   135.0148                  131.6435                  188.0957                  177.6542                  66.0303                   176.7993                  170.6605                  142.088                   187.9707                  42.0119                   52.9245                   123.4058                  15.8114                   167.8154                  23.0868                   189.5099                  135.1814                  171.712                   50.5668                   134.4507                  175.237                   99999.0                   129.5531                  120.2206                  11.6619                   109.7725                  126.6689                  102.5914                  87.0                      135.4474                  16.6433                   117.8898                  7.0711                    99.1262                   12.53                     137.1787                  2.2361                    122.8007                  131.3811                  136.0919                  13.8924                   36.7151                   142.8881                  63.2456                   104.0433                  12.0416                   172.7947                  120.3329                  
41                        154.0552                  165.0848                  208.7415                  19.3132                   62.3939                   142.1724                  5.0                       153.8376                  70.2353                   185.914                   52.0865                   132.7403                  179.4018                  31.3847                   121.4125                  121.062                   197.2841                  173.4042                  19.3132                   7.6158                    152.1184                  140.0321                  64.56                     143.0035                  111.3059                  28.6531                   142.7901                  141.3259                  79.0                      198.7285                  143.9514                  111.7587                  135.0148                  153.16                    14.7648                   118.7139                  91.6788                   10.8167                   128.39                    129.5531                  99999.0                   139.5887                  138.7083                  68.542                    111.6288                  184.9459                  166.8323                  11.4018                   117.6308                  131.947                   136.3305                  178.4657                  134.3019                  15.8114                   131.6852                  142.2392                  204.5605                  26.2488                   142.5798                  103.2473                  154.8709                  134.4024                  180.3802                  139.0575                  117.9576                  53.3667                   
42                        89.1964                   30.2655                   81.7068                   154.7773                  130.0615                  150.5855                  144.5337                  61.7171                   90.0888                   76.0592                   94.921                    127.4245                  70.2567                   122.1475                  76.0263                   82.0549                   75.71                     74.2159                   127.8828                  134.9704                  77.6209                   71.0634                   105.0762                  68.0074                   84.0119                   126.5069                  83.1986                   86.267                    123.6851                  74.7262                   120.2539                  79.9062                   142.7796                  78.924                    132.0189                  79.1581                   83.5464                   134.8332                  76.1643                   120.2206                  139.5887                  99999.0                   130.6331                  71.5612                   35.3553                   73.0068                   64.0312                   135.3699                  105.5462                  7.8102                    124.8079                  67.1193                   132.7403                  133.1353                  120.4159                  3.0                       77.2528                   122.8007                  121.2106                  90.1388                   22.8473                   60.1082                   65.0077                   117.2007                  81.2219                   89.202                    
43                        208.9426                  158.4203                  139.0575                  157.4071                  78.848                    21.3776                   142.1443                  82.7647                   78.339                    106.0754                  140.2462                  6.0                       103.0194                  150.7481                  182.628                   186.9545                  125.016                   91.0                      145.0552                  141.1737                  199.4492                  189.0952                  76.1052                   188.1755                  182.3211                  152.3975                  199.4818                  49.2443                   60.6383                   129.0                     15.2971                   179.4714                  16.2788                   200.8631                  145.0034                  183.3494                  62.1691                   144.0868                  186.8154                  11.6619                   138.7083                  130.6331                  99999.0                   121.3342                  138.105                   108.0046                  93.5361                   145.0862                  28.3019                   128.6002                  5.831                     105.119                   6.4031                    147.0034                  10.6301                   133.1465                  137.0                     146.4138                  13.1529                   48.3735                   153.1698                  72.4983                   110.2225                  15.1327                   184.4397                  131.6055                  
44                        100.6231                  96.566                    146.0308                  83.2166                   78.2624                   134.6291                  73.4098                   99.2975                   46.0977                   128.3511                  26.4008                   115.8706                  121.6429                  51.7397                   68.7968                   71.4003                   136.18                    118.6802                  56.4004                   63.5295                   94.921                    82.6378                   57.0088                   84.119                    64.3817                   55.9017                   89.4707                   100.005                   81.6884                   136.8247                  118.9622                  62.482                    126.0516                  96.2081                   60.4649                   68.0074                   59.2368                   63.2851                   74.793                    109.7725                  68.542                    71.5612                   121.3342                  99999.0                   43.7379                   126.5899                  110.1681                  63.8122                   93.4077                   63.8122                   116.619                   119.8833                  119.8541                  61.6117                   111.234                   74.0945                   141.651                   51.6624                   118.596                   73.3894                   86.3771                   82.7647                   120.5695                  114.1797                  68.4105                   18.6011                   
45                        70.8378                   54.2033                   116.8674                  124.8119                  116.1809                  155.6213                  116.3787                  86.7006                   77.8332                   107.912                   62.7694                   133.6899                  101.5972                  90.2109                   47.4342                   52.8867                   110.0636                  103.0049                  97.509                    106.0424                  61.6198                   50.9902                   92.0489                   50.2494                   52.1536                   94.6678                   61.6117                   101.9804                  114.7693                  109.444                   131.0153                  48.2597                   147.187                   63.0317                   102.0441                  49.4773                   80.2122                   105.3091                  50.0899                   126.6689                  111.6288                  35.3553                   138.105                   43.7379                   99999.0                   105.2236                  93.0054                   105.7024                  110.3177                  28.2312                   132.5481                  98.8585                   138.6001                  102.8834                  127.4755                  36.8917                   112.4011                  91.7061                   131.4002                  91.351                    43.909                    77.4919                   97.6729                   127.0039                  51.1957                   58.6941                   
46                        160.0312                  83.006                    31.1448                   203.1994                  150.2332                  129.0349                  189.842                   32.45                     117.686                   3.6056                    152.9575                  108.2266                  5.831                     177.3415                  149.0034                  155.0129                  17.0294                   17.0294                   179.254                   182.7266                  148.0709                  143.1363                  129.4025                  139.5887                  156.4609                  181.1574                  155.2933                  61.1882                   135.9559                  21.0238                   93.0215                   152.3975                  124.0645                  149.2548                  182.2004                  152.0526                  99.0454                   183.8314                  149.1208                  102.5914                  184.9459                  73.0068                   108.0046                  126.5899                  105.2236                  99999.0                   18.6011                   184.6212                  96.3016                   78.1601                   103.0776                  6.7082                    113.1106                  183.807                   101.4002                  73.1095                   29.0172                   176.1193                  95.0053                   94.3663                   84.8999                   52.2015                   8.2462                    93.0484                   154.0811                  145.0138                  
47                        153.0751                  80.4487                   48.0833                   185.235                   131.727                   114.8564                  171.7032                  13.8924                   99.1564                   19.105                    136.565                   93.086                    12.8062                   160.2623                  138.7083                  144.5856                  34.176                    10.198                    161.6972                  164.8059                  141.3542                  135.0926                  110.8016                  132.0038                  145.031                   163.9756                  147.2209                  45.0111                   117.686                   37.3631                   79.0759                   141.0567                  109.2245                  142.6219                  164.5023                  141.4284                  80.4487                   166.012                   139.5887                  87.0                      166.8323                  64.0312                   93.5361                   110.1681                  93.0054                   18.6011                   99999.0                   166.8203                  79.2465                   67.7422                   88.278                    13.0                      98.1835                   166.1475                  86.0233                   64.846                    45.1221                   158.8081                  80.895                    76.0592                   80.0625                   33.6006                   17.2627                   78.4092                   143.3492                  128.3783                  
48                        144.4195                  159.6778                  207.2125                  19.4165                   70.8308                   149.8566                  13.6015                   154.2077                  73.0548                   185.801                   44.1475                   139.0899                  179.201                   20.6155                   112.0402                  111.3643                  196.2371                  173.8994                  9.0                       4.4721                    143.0035                  131.0611                  69.5845                   134.2386                  101.4938                  17.4642                   133.2404                  144.1007                  86.4696                   197.4361                  149.3452                  102.1763                  142.4254                  144.0                     4.0                       109.165                   94.578                    1.0                       119.0378                  135.4474                  11.4018                   135.3699                  145.0862                  63.8122                   105.7024                  184.6212                  166.8203                  99999.0                   122.6418                  127.6244                  142.3517                  178.0449                  141.0                     4.4721                    137.5245                  137.9058                  202.9507                  16.0312                   148.0979                  107.0047                  149.4021                  135.1518                  179.6357                  144.3918                  108.2959                  47.0106                   
49                        181.1077                  134.4619                  127.122                   136.8211                  63.2456                   45.607                    121.5648                  66.3702                   52.1536                   95.2103                   113.3578                  23.4307                   90.7083                   126.0                     154.4021                  158.6852                  113.031                   79.6994                   121.499                   119.0504                  171.84                    161.2762                  53.1507                   160.5148                  154.0195                  128.0625                  171.4934                  35.4683                   45.4533                   116.4989                  27.0                      151.1721                  37.4433                   173.2541                  122.0533                  155.0806                  34.176                    121.6553                  158.6726                  16.6433                   117.6308                  105.5462                  28.3019                   93.4077                   110.3177                  96.3016                   79.2465                   122.6418                  99999.0                   102.7278                  23.2594                   91.9837                   28.2843                   124.0363                  17.8885                   108.2266                  124.3382                  122.0656                  26.0768                   20.1246                   128.3511                  51.3517                   96.5091                   22.0                      156.157                   104.561                   
50                        86.8159                   36.0139                   88.6397                   147.0272                  124.004                   148.1114                  136.8832                  63.9062                   84.006                    81.0555                   87.1149                   125.1                     75.0                      114.3372                  71.1126                   77.0584                   82.0061                   77.9295                   120.1041                  127.2635                  75.591                    68.0074                   99.0051                   65.3911                   78.3135                   118.6971                  80.0062                   85.9127                   118.3765                  81.2712                   118.9285                  74.2428                   140.1321                  76.9415                   124.2578                  74.0068                   78.848                    127.0945                  71.8471                   117.8898                  131.947                   7.8102                    128.6002                  63.8122                   28.2312                   78.1601                   67.7422                   127.6244                  102.7278                  99999.0                   122.8007                  72.0278                   130.3572                  125.3635                  118.2244                  10.2956                   84.1724                   115.0                     119.7539                  86.406                    27.2947                   59.8164                   70.3491                   115.6244                  76.0                      81.4002                   
51                        203.3839                  152.5942                  134.1827                  155.1934                  77.4919                   26.9258                   139.9035                  77.2787                   74.3303                   101.2423                  136.0625                  5.831                     98.0051                   147.3397                  177.2823                  181.6645                  120.1041                  86.0523                   142.0035                  138.5208                  193.8298                  183.5347                  73.0068                   182.5705                  177.1581                  149.1208                  193.982                   43.7379                   59.1354                   124.0363                  11.6619                   174.2642                  21.0                      195.2434                  142.1267                  178.059                   57.3847                   141.3542                  181.4001                  7.0711                    136.3305                  124.8079                  5.831                     116.619                   132.5481                  103.0776                  88.278                    142.3517                  23.2594                   122.8007                  99999.0                   100.02                    10.0499                   144.1249                  5.3852                    127.3185                  132.0341                  143.1258                  9.434                     43.382                    147.3397                  66.7083                   105.0762                  10.0499                   179.1759                  127.3499                  
52                        154.7805                  78.721                    35.171                    196.6647                  144.6271                  126.321                   183.3712                  26.8328                   111.5213                  9.0554                    146.2498                  105.0048                  3.6056                    170.6605                  143.014                   149.0034                  21.1896                   14.8661                   172.6297                  176.1817                  142.8636                  137.6118                  123.4585                  134.1641                  150.2698                  174.485                   149.7765                  57.3149                   130.679                   24.5153                   90.3549                   146.219                   121.0165                  144.0694                  175.6018                  146.0034                  93.1933                   177.2597                  143.2829                  99.1262                   178.4657                  67.1193                   105.119                   119.8833                  98.8585                   6.7082                    13.0                      178.0449                  91.9837                   72.0278                   100.02                    99999.0                   110.0045                  177.2005                  98.0459                   67.3647                   32.3883                   169.4609                  92.2659                   89.0505                   80.0062                   46.3249                   5.3852                    90.05                     148.0135                  138.3112                  
53                        209.38                    160.9969                  144.2221                  152.8398                  73.7564                   17.8885                   137.6154                  86.977                    75.8947                   111.2879                  137.8768                  5.3852                    108.0185                  147.3635                  182.4281                  186.6039                  130.1384                  96.0833                   141.2869                  137.0146                  200.1225                  189.5521                  72.5603                   188.7988                  181.6645                  148.8624                  199.7248                  53.4603                   55.7315                   134.0597                  21.1896                   178.9218                  11.0454                   201.5366                  141.0567                  183.0027                  61.0574                   140.0                     186.8074                  12.53                     134.3019                  132.7403                  6.4031                    119.8541                  138.6001                  113.1106                  98.1835                   141.0                     28.2843                   130.3572                  10.0499                   110.0045                  99999.0                   143.0559                  12.6491                   135.3255                  142.0563                  142.8986                  18.9737                   47.8017                   155.4156                  75.6108                   115.0391                  20.0998                   184.0245                  129.3561                  
54                        140.289                   156.9745                  205.915                   21.9317                   73.7631                   152.3187                  18.0278                   153.701                   73.7631                   185.0676                  40.8044                   141.0035                  178.4405                  16.2788                   108.0046                  107.2287                  195.1333                  173.4157                  5.3852                    8.4853                    139.0324                  127.1417                  71.1758                   130.384                   97.3293                   13.0                      129.1395                  144.5579                  88.955                    196.2371                  150.8509                  98.0816                   144.7791                  140.0143                  2.0                       105.0762                  95.2103                   5.0                       115.0043                  137.1787                  15.8114                   133.1353                  147.0034                  61.6117                   102.8834                  183.807                   166.1475                  4.4721                    124.0363                  125.3635                  144.1249                  177.2005                  143.0559                  99999.0                   139.23                    135.6245                  201.6259                  12.0416                   149.6563                  107.9352                  146.6867                  134.8258                  178.6645                  145.8801                  104.1729                  44.2945                   
55                        198.3129                  148.4857                  132.5443                  150.6254                  73.5391                   30.4631                   135.3292                  74.5453                   69.0507                   99.7246                   130.7287                  7.2801                    96.1873                   142.2252                  172.0465                  176.4001                  118.423                   84.3801                   137.0328                  133.7348                  188.8306                  178.4657                  68.0661                   177.5528                  171.843                   144.0555                  188.8544                  41.1096                   55.1543                   122.262                   13.6015                   168.9645                  23.5372                   190.2446                  137.2334                  172.7947                  52.0                      136.5284                  176.2073                  2.2361                    131.6852                  120.4159                  10.6301                   111.234                   127.4755                  101.4002                  86.0233                   137.5245                  17.8885                   118.2244                  5.3852                    98.0459                   12.6491                   139.23                    99999.0                   122.9675                  130.2459                  138.058                   11.6619                   38.0132                   143.0315                  62.9682                   103.0049                  10.0                      173.8994                  122.0041                  
56                        88.2326                   27.2947                   80.6536                   157.3054                  133.0601                  153.1829                  147.1768                  63.1348                   93.086                    76.2365                   97.1854                   130.0                     70.5762                   124.4709                  76.1643                   82.2192                   75.1332                   75.0                      130.3572                  137.5573                  76.5506                   70.406                    108.074                   67.1863                   84.5281                   128.8449                  82.5651                   88.4138                   126.6689                  73.9797                   122.6132                  80.4114                   145.4132                  77.8332                   134.5288                  79.404                    86.4928                   137.379                   76.0263                   122.8007                  142.2392                  3.0                       133.1465                  74.0945                   36.8917                   73.1095                   64.846                    137.9058                  108.2266                  10.2956                   127.3185                  67.3647                   135.3255                  135.6245                  122.9675                  99999.0                   76.2168                   125.2078                  123.6002                  92.9731                   20.1246                   62.2896                   65.0308                   119.6202                  81.4985                   91.6079                   
57                        156.0128                  76.0263                   4.4721                    222.036                   175.3283                  158.0506                  209.5376                  58.5235                   140.3567                  31.257                    167.4097                  137.1313                  34.0588                   193.3494                  151.0099                  157.0891                  12.1655                   46.0                      196.7587                  201.5366                  144.0035                  141.4284                  153.1829                  137.2334                  160.3309                  197.4335                  153.2645                  89.6772                   162.1172                  8.0                       122.0369                  156.2082                  153.0294                  145.0138                  200.1724                  154.5639                  123.4342                  202.2375                  149.7765                  131.3811                  204.5605                  77.2528                   137.0                     141.651                   112.4011                  29.0172                   45.1221                   202.9507                  124.3382                  84.1724                   132.0341                  32.3883                   142.0563                  201.6259                  130.2459                  76.2168                   99999.0                   192.8523                  124.0161                  120.5529                  81.3019                   77.0779                   27.8927                   122.0164                  156.7323                  160.2404                  
58                        128.39                    145.8904                  197.1903                  33.5261                   76.9675                   153.3754                  29.4279                   146.7685                  70.4557                   177.5528                  29.1548                   140.4315                  170.8801                  5.6569                    96.0208                   95.3362                   186.8154                  166.4812                  7.0711                    18.6815                   127.0157                  115.1086                  70.3491                   118.3427                  85.4751                   6.0                       117.2092                  139.9786                  90.5207                   187.7232                  149.0537                  86.1452                   145.5266                  128.0039                  12.0416                   93.1343                   91.4112                   16.1245                   103.0194                  136.0919                  26.2488                   122.8007                  146.4138                  51.6624                   91.7061                   176.1193                  158.8081                  16.0312                   122.0656                  115.0                     143.1258                  169.4609                  142.8986                  12.0416                   138.058                   125.2078                  192.8523                  99999.0                   148.0135                  104.8094                  135.595                   128.3783                  170.6517                  144.0555                  92.2659                   33.6006                   
59                        202.0891                  148.1891                  126.0159                  161.6168                  85.0882                   34.0588                   146.3216                  70.6045                   78.2304                   93.0215                   139.2623                  15.2643                   90.0888                   152.0132                  177.0198                  181.6177                  112.0                     78.0256                   147.2753                  144.3918                  192.2004                  182.2581                  78.5175                   181.0442                  177.5894                  154.013                   193.0026                  37.3363                   66.7083                   116.0172                  2.2361                    174.5423                  29.4279                   193.6104                  147.6652                  178.0169                  59.6657                   147.1054                  180.8342                  13.8924                   142.5798                  121.2106                  13.1529                   118.596                   131.4002                  95.0053                   80.895                    148.0979                  26.0768                   119.7539                  9.434                     92.2659                   18.9737                   149.6563                  11.6619                   123.6002                  124.0161                  148.0135                  99999.0                   45.3542                   143.4503                  61.9112                   97.4166                   4.4721                    179.2345                  130.4186                  
60                        161.929                   119.9208                  123.8588                  122.5602                  56.4004                   64.3506                   107.5407                  62.2415                   34.3657                   94.0213                   94.0479                   43.2666                   88.5494                   108.3744                  134.6291                  138.8092                  110.1681                  79.0759                   104.9238                  103.7401                  152.9706                  142.1443                  39.4462                   141.598                   133.9888                  110.7655                  152.1085                  39.2046                   41.6293                   113.0885                  45.8912                   131.1869                  55.8659                   154.3826                  105.9906                  135.2072                  14.3178                   106.0424                  139.0539                  36.7151                   103.2473                  90.1388                   48.3735                   73.3894                   91.351                    94.3663                   76.0592                   107.0047                  20.1246                   86.406                    43.382                    89.0505                   47.8017                   107.9352                  38.0132                   92.9731                   120.5529                  104.8094                  45.3542                   99999.0                   112.9469                  43.6807                   92.8493                   41.0                      136.2424                  85.1587                   
61                        75.5381                   10.2956                   85.4751                   168.6001                  151.0828                  173.2801                  159.6997                  80.604                    111.1126                  88.3233                   106.6771                  150.0833                  83.4865                   134.1119                  70.8378                   76.844                    83.1505                   89.8999                   141.3223                  149.5627                  63.5059                   60.1332                   126.0992                  56.0089                   81.4371                   138.5713                  72.0278                   107.8147                  145.6709                  81.0062                   142.4114                  77.3886                   165.5295                  64.6297                   145.7978                  74.6726                   105.9906                  148.9765                  68.884                    142.8881                  154.8709                  22.8473                   153.1698                  86.3771                   43.909                    84.8999                   80.0625                   149.4021                  128.3511                  27.2947                   147.3397                  80.0062                   155.4156                  146.6867                  143.0315                  20.1246                   81.3019                   135.595                   143.4503                  112.9469                  99999.0                   81.8352                   76.6551                   139.5206                  76.896                    102.4158                  
62                        145.6194                  86.2844                   80.5295                   153.1176                  98.4124                   93.4077                   139.2013                  19.8494                   65.7647                   52.4976                   108.6692                  70.2282                   46.4004                   130.3879                  124.92                    130.292                   67.1193                   39.0512                   130.6484                  132.8533                  134.8332                  126.1784                  77.201                    124.1692                  128.5496                  133.8245                  137.7425                  26.1725                   85.0941                   69.7782                   60.7454                   124.908                   86.3308                   136.2131                  133.094                   126.8267                  46.8722                   134.3019                  127.3892                  63.2456                   134.4024                  60.1082                   72.4983                   82.7647                   77.4919                   52.2015                   33.6006                   135.1518                  51.3517                   59.8164                   66.7083                   46.3249                   75.6108                   134.8258                  62.9682                   62.2896                   77.0779                   128.3783                  61.9112                   43.6807                   81.8352                   99999.0                   49.6488                   58.1808                   128.4445                  100.0                     
63                        151.7959                  74.8465                   31.0161                   198.3986                  148.0608                  131.461                   185.3106                  30.6757                   114.2016                  11.7047                   146.8605                  110.0045                  8.6023                    171.6799                  141.0319                  147.0544                  17.4929                   20.2485                   174.0115                  177.8904                  139.832                   134.9518                  126.4792                  131.3811                  148.6607                  175.5733                  147.1054                  62.1289                   134.4619                  20.2485                   95.5249                   144.5856                  126.0635                  141.0142                  177.1017                  144.1249                  96.3846                   178.8687                  141.0567                  104.0433                  180.3802                  65.0077                   110.2225                  120.5695                  97.6729                   8.2462                    17.2627                   179.6357                  96.5091                   70.3491                   105.0762                  5.3852                    115.0391                  178.6645                  103.0049                  65.0308                   27.8927                   170.6517                  97.4166                   92.8493                   76.6551                   49.6488                   99999.0                   95.1315                   146.1677                  139.0863                  
64                        197.717                   144.4022                  124.1451                  158.1518                  82.2922                   36.4966                   142.8636                  67.6831                   74.108                    91.1976                   134.9741                  15.5242                   88.0                      148.0                     172.5688                  177.1581                  110.0727                  76.0263                   143.4225                  140.7302                  187.8643                  177.882                   74.8131                   176.6947                  173.1185                  150.0533                  188.6001                  34.2053                   63.9531                   114.0175                  5.0                       170.0735                  31.0161                   189.2749                  143.8923                  173.5569                  55.3173                   143.4015                  176.4001                  12.0416                   139.0575                  117.2007                  15.1327                   114.1797                  127.0039                  93.0484                   78.4092                   144.3918                  22.0                      115.6244                  10.0499                   90.05                     20.0998                   145.8801                  10.0                      119.6202                  122.0164                  144.0555                  4.4721                    41.0                      139.5206                  58.1808                   95.1315                   99999.0                   174.7713                  126.115                   
65                        36.1248                   85.0                      161.0745                  124.0363                  145.9623                  200.0625                  121.5936                  137.7679                  113.9517                  157.0287                  67.4463                   179.4937                  151.0                     88.0511                   6.4031                    3.1623                    156.5535                  153.4699                  99.3227                   110.6526                  36.1386                   25.9422                   125.4193                  30.5287                   7.2801                    92.0054                   25.0                      152.2793                  150.0833                  155.1934                  179.1089                  6.3246                    191.4706                  36.8782                   104.3072                  2.2361                    123.2274                  108.3744                  12.083                    172.7947                  117.9576                  81.2219                   184.4397                  68.4105                   51.1957                   154.0811                  143.3492                  108.2959                  156.157                   76.0                      179.1759                  148.0135                  184.0245                  104.1729                  173.8994                  81.4985                   156.7323                  92.2659                   179.2345                  136.2424                  76.896                    128.4445                  146.1677                  174.7713                  99999.0                   70.3847                   
66                        105.3613                  112.6987                  164.6238                  66.1891                   77.3369                   142.762                   57.9741                   117.1751                  53.4883                   146.7106                  9.0                       125.873                   140.0036                  33.2415                   72.4224                   73.5391                   154.7676                  136.6931                  38.9487                   47.4342                   101.6071                  89.2693                   60.4649                   91.6624                   64.846                    37.4833                   93.9628                   115.434                   84.8116                   155.4252                  131.0343                  64.0781                   134.3317                  102.7716                  43.382                    70.5762                   70.859                    46.6154                   79.1202                   120.3329                  53.3667                   89.202                    131.6055                  18.6011                   58.6941                   145.0138                  128.3783                  47.0106                   104.561                   81.4002                   127.3499                  138.3112                  129.3561                  44.2945                   122.0041                  91.6079                   160.2404                  33.6006                   130.4186                  85.1587                   102.4158                  100.0                     139.0863                  126.115                   70.3847                   99999.0                   
;
SCALAR TOTAL  /66/;
SCALAR NODES  /60/;
SCALAR W  /1/;
SCALAR Y  /66/;
SCALAR M  /1/;
BINARY VARIABLE X(I,J,K)  x variable ;
INTEGER VARIABLE U(K,O)    u variable ;
VARIABLE   Z         objective ;
EQUATIONS
CON1(K)   constraint 1
CON2(K)   constraint 2
CON3   constraint 3
CON4(O)   constraint 4
CON5(O,K)   constraint 5
CON6(O,K)   constraint 6
CON7(K)   constraint 7
CON10(O,P,K)   constraint 10
CON11(O,K)   constraint 11;
CON1(K).. SUM(O,X(K,O,K)) =E= 1;
CON2(K).. SUM(O,X(O,K,K)) =E= 1;
CON3..  SUM((K,L),X(K,L,K)) =E= 0;
CON4(O) .. SUM(K,X(K,O,K)) + SUM((P,K),X(P,O,K)) =e= W;
CON5(O,K) .. X(K,O,K) + SUM(P,X(P,O,K)) =L= 1;
CON6(O,K) .. X(K,O,K) + SUM(P,X(P,O,K)) - X(O,K,K) - SUM(P,X(O,P,K)) =e= 0;
CON7(K) .. Z =G= SUM(O,C(K,O)*X(K,O,K) + C(O,K)*X(O,K,K)) + SUM((P,O),C(P,O)*X(P,O,K));
CON10(O,P,K) .. U(K,O) - U(K,P) + (TOTAL-1)*X(O,P,K) + (TOTAL-3)*X(P,O,K) =L= (TOTAL-2);
CON11(O,K) .. X(O,O,K) =e= 0;
MODEL TRANSPORT /ALL/;
SOLVE TRANSPORT USING MIP MINIMIZING Z ;
