SET
I  first /1*46/
K(I)  depot1 /1*6/
O(I)  node1 /7*46/
alias(I,J);
alias(K,L);
alias(O,P);
TABLE C(I,J)  node to node
                          1                         2                         3                         4                         5                         6                         7                         8                         9                         10                        11                        12                        13                        14                        15                        16                        17                        18                        19                        20                        21                        22                        23                        24                        25                        26                        27                        28                        29                        30                        31                        32                        33                        34                        35                        36                        37                        38                        39                        40                        41                        42                        43                        44                        45                        46                        
1                         99999.0                   99999.0                   99999.0                   99999.0                   99999.0                   99999.0                   122.1024                  81.5843                   85.9593                   98.3717                   69.857                    81.4923                   97.5141                   63.561                    108.4666                  124.4709                  96.6023                   87.6641                   28.0                      20.0                      13.0                      91.586                    138.7984                  78.5493                   52.4976                   55.1543                   66.2193                   13.0                      130.5105                  99.0202                   32.5269                   8.0623                    95.268                    148.1891                  85.1469                   95.5667                   73.0068                   72.3671                   114.057                   57.2451                   132.0984                  72.9932                   94.4299                   89.7385                   124.4227                  67.6018                   
2                         99999.0                   99999.0                   99999.0                   99999.0                   99999.0                   99999.0                   58.8558                   80.8022                   63.9062                   122.0246                  4.1231                    77.666                    110.4536                  2.2361                    58.8218                   71.1196                   73.7631                   22.0907                   39.0                      55.0727                   74.0945                   65.0                      106.0754                  67.7422                   14.0357                   56.0803                   2.0                       78.5875                   70.7672                   106.827                   41.7732                   67.0671                   59.1354                   111.8794                  32.7567                   29.8329                   7.2801                    7.0711                    55.8032                   10.7703                   71.4213                   8.544                     107.5639                  24.0416                   63.6396                   6.7082                    
3                         99999.0                   99999.0                   99999.0                   99999.0                   99999.0                   99999.0                   31.7648                   98.4073                   75.6902                   143.5444                  26.3059                   94.6414                   129.4025                  32.5576                   52.3927                   58.0775                   82.801                    8.544                     68.9638                   84.309                    104.0433                  74.027                    104.2929                  83.8689                   44.1814                   79.3095                   30.1496                   108.9082                  50.3289                   124.3262                  71.0634                   97.1236                   63.8122                   107.2007                  35.4683                   2.2361                    23.1948                   23.7697                   40.1123                   40.0125                   49.6588                   23.4094                   126.8267                  7.2801                    42.72                     29.1548                   
4                         99999.0                   99999.0                   99999.0                   99999.0                   99999.0                   99999.0                   151.4893                  23.3238                   45.4863                   33.541                    105.603                   26.4008                   14.3178                   103.7304                  83.2166                   95.5667                   42.3792                   116.6748                  102.8397                  112.641                   112.361                   49.1935                   67.3573                   36.7967                   95.7706                   51.8652                   102.4158                  106.2121                  112.9292                  6.0828                    79.3095                   108.0417                  61.7414                   78.4347                   85.4283                   118.3427                  106.6677                  109.0183                  101.2373                  95.1893                   116.3873                  111.2115                  14.3178                   113.8991                  112.361                   110.6797                  
5                         99999.0                   99999.0                   99999.0                   99999.0                   99999.0                   99999.0                   115.6244                  18.0                      9.434                     64.5368                   72.4707                   14.0357                   47.1699                   71.6938                   48.8365                   63.0317                   11.6619                   81.6884                   80.2247                   93.7443                   99.925                    14.1421                   53.2635                   8.6023                    65.9697                   31.7805                   69.7782                   96.6488                   79.0759                   40.7063                   58.0517                   93.984                    26.6833                   63.6553                   49.5782                   82.7345                   73.0616                   75.6637                   66.0984                   64.195                    82.3772                   77.8974                   45.2217                   78.5684                   77.6209                   78.2943                   
6                         99999.0                   99999.0                   99999.0                   99999.0                   99999.0                   99999.0                   68.9493                   83.6002                   57.2189                   130.2306                  62.2656                   79.511                    112.2943                  67.1193                   17.0294                   8.2462                    57.28                     54.5711                   99.7046                   116.6748                  132.4387                  51.6236                   59.6825                   70.0643                   72.9178                   80.2808                   63.5138                   133.9627                  13.3417                   105.0809                  89.3588                   125.2517                  39.2046                   59.808                    36.2353                   48.3735                   59.9416                   62.6099                   10.198                    68.0147                   16.7631                   63.9766                   110.6345                  49.4773                   14.1421                   68.884                    
7                         122.1024                  58.8558                   31.7648                   151.4893                  115.6244                  68.9493                   99999.0                   129.8499                  106.3015                  175.2769                  55.109                    126.0159                  160.8975                  60.6712                   77.1751                   77.1622                   112.45                    37.9473                   94.1329                   107.3546                  128.1327                  103.9471                  127.9531                  115.2085                  72.8354                   110.982                   59.2284                   134.3726                  62.8013                   155.6021                  100.6231                  121.6963                  92.7631                   128.7517                  66.0681                   33.6155                   52.3927                   51.788                    60.4152                   69.4262                   60.407                    50.4876                   158.373                   38.9102                   56.5155                   55.1453                   
8                         81.5843                   80.8022                   98.4073                   23.3238                   18.0                      83.6002                   129.8499                  99999.0                   26.4764                   47.1275                   82.4621                   4.1231                    31.0644                   80.4487                   66.6108                   81.0247                   28.6356                   94.1754                   80.895                    92.0                      94.3663                   32.0624                   66.2193                   14.7648                   72.4707                   29.4279                   79.2023                   89.493                    96.8762                   26.1725                   57.4282                   89.2693                   44.4072                   77.201                    64.1405                   96.4002                   83.6301                   85.9127                   83.4326                   71.8679                   100.1299                  88.0909                   28.6531                   91.6788                   95.1262                   87.4185                   
9                         85.9593                   63.9062                   75.6902                   45.4863                   9.434                     57.2189                   106.3015                  26.4764                   99999.0                   73.4983                   64.4748                   22.3607                   56.4624                   64.195                    40.1995                   55.0818                   11.1803                   72.8011                   76.2955                   90.802                    98.8838                   6.7082                    52.8394                   13.1529                   59.5399                   31.8904                   62.0322                   96.5194                   70.4557                   50.1199                   55.3624                   92.5743                   18.0278                   62.426                    40.3113                   73.5527                   64.846                    67.5426                   57.0088                   57.2713                   73.6817                   69.7782                   54.4243                   69.527                    68.6586                   70.5762                   
10                        98.3717                   122.0246                  143.5444                  33.541                    64.5368                   130.2306                  175.2769                  47.1275                   73.4983                   99999.0                   124.4709                  51.2445                   19.2354                   121.1652                  113.3578                  127.0118                  73.437                    138.398                   109.9318                  115.1564                  108.683                   78.6448                   100.6876                  61.6847                   111.018                   65.9469                   120.7394                  100.449                   143.5618                  27.4591                   88.0057                   106.3203                  91.2195                   111.6826                  110.4943                  141.6616                  126.2101                  128.0625                  130.5067                  111.866                   146.8911                  130.0961                  20.0                      136.5284                  142.1267                  128.2225                  
11                        69.857                    4.1231                    26.3059                   105.603                   72.4707                   62.2656                   55.109                    82.4621                   64.4748                   124.4709                  99999.0                   79.2023                   112.45                    6.3246                    56.7539                   68.4471                   74.0                      18.0278                   43.0813                   59.0593                   78.1857                   65.146                    105.0                     69.0652                   18.0                      58.6003                   4.1231                    82.7103                   67.3573                   108.5772                  45.5412                   71.1688                   58.5491                   110.4536                  31.1448                   25.7099                   3.1623                    3.6056                    52.6972                   14.3178                   67.897                    5.6569                    109.6038                  19.9249                   60.1415                   7.0711                    
12                        81.4923                   77.666                    94.6414                   26.4008                   14.0357                   79.511                    126.0159                  4.1231                    22.3607                   51.2445                   79.2023                   99999.0                   34.9857                   77.3886                   62.514                    77.0065                   25.0                      90.5539                   79.404                    91.0879                   94.3716                   28.0179                   63.7809                   10.8167                   69.7782                   28.0179                   76.0263                   89.8888                   92.7793                   29.7321                   56.0803                   89.0505                   40.3113                   74.6525                   60.208                    92.6175                   80.2808                   82.6196                   79.3095                   68.9638                   96.026                    84.8116                   32.6497                   87.9659                   91.0055                   84.3149                   
13                        97.5141                   110.4536                  129.4025                  14.3178                   47.1699                   112.2943                  160.8975                  31.0644                   56.4624                   19.2354                   112.45                    34.9857                   99999.0                   109.8772                  95.6033                   108.6738                  55.109                    124.964                   104.1777                  112.058                   109.1146                  61.0328                   81.6088                   45.793                    100.8018                  55.4707                   108.9771                  102.0196                  125.6344                  8.2462                    81.0247                   105.5746                  73.6817                   92.6553                   95.1893                   127.4127                  113.8464                  115.9741                  113.2166                  100.896                   129.031                   118.1059                  3.1623                    122.6132                  124.6194                  116.9316                  
14                        63.561                    2.2361                    32.5576                   103.7304                  71.6938                   67.1193                   60.6712                   80.4487                   64.195                    121.1652                  6.3246                    77.3886                   109.8772                  99999.0                   60.407                    72.9452                   74.2159                   24.1868                   36.7696                   52.8394                   71.8679                   65.5134                   107.1681                  67.6018                   12.1655                   55.2268                   3.6056                    76.4003                   72.8629                   106.4002                  40.025                    64.846                    60.0333                   113.1371                  34.2053                   32.0156                   9.4868                    9.0                       57.8014                   9.434                     73.5527                   10.198                    106.9626                  26.2488                   65.7647                   7.0711                    
15                        108.4666                  58.8218                   52.3927                   83.2166                   48.8365                   17.0294                   77.1751                   66.6108                   40.1995                   113.3578                  56.7539                   62.514                    95.6033                   60.407                    99999.0                   16.5529                   40.8534                   54.1479                   89.202                    106.0424                  120.2414                  34.7131                   51.923                    53.0377                   63.6318                   64.195                    56.921                    120.8801                  30.2655                   88.5438                   76.0592                   113.1459                  22.2036                   55.1453                   26.4008                   50.2195                   55.109                    58.0517                   18.6011                   59.0593                   33.541                    59.8415                   93.8616                   49.2544                   29.1548                   63.7887                   
16                        124.4709                  71.1196                   58.0775                   95.5667                   63.0317                   8.2462                    77.1622                   81.0247                   55.0818                   127.0118                  68.4471                   77.0065                   108.6738                  72.9452                   16.5529                   99999.0                   53.6004                   61.9839                   104.1393                  121.0826                  136.0294                  49.0                      51.8652                   68.1836                   77.801                    80.6536                   69.3542                   137.0036                  18.6011                   101.2028                  92.2009                   128.8875                  37.2156                   51.6236                   40.4599                   56.1427                   66.3099                   69.0797                   18.0                      73.0068                   22.2036                   70.5762                   107.2007                  56.8859                   21.6333                   75.2396                   
17                        96.6023                   73.7631                   82.801                    42.3792                   11.6619                   57.28                     112.45                    28.6356                   11.1803                   73.437                    74.0                      25.0                      55.109                    74.2159                   40.8534                   53.6004                   99999.0                   80.7775                   87.4757                   101.9215                  109.5673                  8.9443                    42.4382                   19.8494                   70.2567                   41.8808                   71.8401                   106.8504                  70.6045                   47.8017                   66.4078                   103.3683                  20.0                      52.4976                   47.4342                   80.604                    74.0945                   76.896                    59.0339                   67.7422                   74.0405                   79.1202                   53.6004                   77.1038                   70.0071                   80.3617                   
18                        87.6641                   22.0907                   8.544                     116.6748                  81.6884                   54.5711                   37.9473                   94.1754                   72.8011                   138.398                   18.0278                   90.5539                   124.964                   24.1868                   54.1479                   61.9839                   80.7775                   99999.0                   60.4401                   75.7694                   95.5092                   71.8679                   105.5462                  79.9062                   36.0139                   73.3553                   22.0                      100.439                   56.356                    120.283                   63.2851                   88.6002                   62.6498                   109.2932                  33.541                    8.6023                    15.0                      15.2971                   44.3847                   32.0624                   56.0803                   14.8661                   122.2865                  5.099                     48.7647                   20.6155                   
19                        28.0                      39.0                      68.9638                   102.8397                  80.2247                   99.7046                   94.1329                   80.895                    76.2955                   109.9318                  43.0813                   79.404                    104.1777                  36.7696                   89.202                    104.1393                  87.4757                   60.4401                   99999.0                   16.9706                   35.1141                   80.5233                   127.4402                  73.0068                   27.2029                   51.4782                   39.8121                   40.3113                   107.4477                  103.4456                  23.5372                   28.1603                   80.6226                   135.5581                  63.7024                   68.6222                   46.2385                   45.2217                   91.4385                   32.2025                   108.6002                  45.607                    101.0198                  62.9682                   100.8018                  40.025                    
20                        20.0                      55.0727                   84.309                    112.641                   93.7443                   116.6748                  107.3546                  92.0                      90.802                    115.1564                  59.0593                   91.0879                   112.058                   52.8394                   106.0424                  121.0826                  101.9215                  75.7694                   16.9706                   99999.0                   21.0                      95.5196                   142.8041                  85.9884                   44.0454                   63.1981                   56.0803                   28.8617                   124.3262                  112.45                    35.6931                   15.5242                   96.6023                   151.2878                  80.6598                   84.1724                   62.1772                   60.8358                   108.3744                  49.0408                   125.4193                  60.9262                   108.9082                  78.721                    117.6138                  55.1543                   
21                        13.0                      74.0945                   104.0433                  112.361                   99.925                    132.4387                  128.1327                  94.3663                   98.8838                   108.683                   78.1857                   94.3716                   109.1146                  71.8679                   120.2414                  136.0294                  109.5673                  95.5092                   35.1141                   21.0                      99999.0                   104.4462                  151.7168                  91.5478                   61.7171                   68.1542                   74.8465                   9.8995                    141.1737                  111.0405                  44.8219                   7.2111                    107.8007                  161.0373                  96.2133                   103.7304                  81.3449                   80.3243                   124.8519                  66.6483                   142.5798                  80.6536                   106.0754                  98.0816                   134.8332                  75.0                      
22                        91.586                    65.0                      74.027                    49.1935                   14.1421                   51.6236                   103.9471                  32.0624                   6.7082                    78.6448                   65.146                    28.0179                   61.0328                   65.5134                   34.7131                   49.0                      8.9443                    71.8679                   80.5233                   95.5196                   104.4462                  99999.0                   47.4236                   19.6469                   62.0322                   38.1838                   63.0635                   102.4158                  64.9384                   54.231                    60.4152                   98.0051                   12.6491                   56.6039                   38.6005                   71.8401                   65.192                    68.0074                   52.2015                   59.3043                   68.2495                   70.2282                   59.203                    68.2422                   63.6003                   71.5681                   
23                        138.7984                  106.0754                  104.2929                  67.3573                   53.2635                   59.6825                   127.9531                  66.2193                   52.8394                   100.6876                  105.0                     63.7809                   81.6088                   107.1681                  51.923                    51.8652                   42.4382                   105.5462                  127.4402                  142.8041                  151.7168                  47.4236                   99999.0                   61.8466                   106.5317                  84.3149                   104.0769                  149.2515                  69.6563                   73.3757                   107.8378                  145.3616                  47.676                    11.1803                   74.0608                   102.1078                  104.0433                  107.042                   67.5426                   102.9563                  73.1095                   109.0734                  81.5966                   100.8067                  73.4983                   112.0045                  
24                        78.5493                   67.7422                   83.8689                   36.7967                   8.6023                    70.0643                   115.2085                  14.7648                   13.1529                   61.6847                   69.0652                   10.8167                   45.793                    67.6018                   53.0377                   68.1836                   19.8494                   79.9062                   73.0068                   85.9884                   91.5478                   19.6469                   61.8466                   99999.0                   60.7454                   23.4094                   66.0379                   88.1192                   83.2166                   40.4599                   50.3587                   85.703                    31.0161                   72.1803                   49.3964                   81.8352                   70.0                      72.4224                   69.2315                   59.5063                   86.3713                   74.6324                   43.4166                   77.2334                   81.0494                   74.4312                   
25                        52.4976                   14.0357                   44.1814                   95.7706                   65.9697                   72.9178                   72.8354                   72.4707                   59.5399                   111.018                   18.0                      69.7782                   100.8018                  12.1655                   63.6318                   77.801                    70.2567                   36.0139                   27.2029                   44.0454                   61.7171                   62.0322                   106.5317                  60.7454                   99999.0                   45.4533                   14.0357                   65.4599                   80.2808                   97.9439                   27.8927                   54.5619                   58.8558                   113.5077                  37.4433                   43.4166                   21.0238                   21.095                    64.3817                   5.0                       81.4002                   22.3607                   97.8008                   37.4833                   73.6003                   18.3848                   
26                        55.1543                   56.0803                   79.3095                   51.8652                   31.7805                   80.2808                   110.982                   29.4279                   31.8904                   65.9469                   58.6003                   28.0179                   55.4707                   55.2268                   64.195                    80.6536                   41.8808                   73.3553                   51.4782                   63.1981                   68.1542                   38.1838                   84.3149                   23.4094                   45.4533                   99999.0                   54.8179                   65.0                      92.3959                   53.2259                   28.0713                   62.2977                   45.2769                   94.2019                   50.1597                   77.6209                   60.4649                   62.2013                   76.531                    45.9674                   95.0368                   64.2028                   52.4309                   72.0902                   88.459                    62.2896                   
27                        66.2193                   2.0                       30.1496                   102.4158                  69.7782                   63.5138                   59.2284                   79.2023                   62.0322                   120.7394                  4.1231                    76.0263                   108.9771                  3.6056                    56.921                    69.3542                   71.8401                   22.0                      39.8121                   56.0803                   74.8465                   63.0635                   104.0769                  66.0379                   14.0357                   54.8179                   99999.0                   79.1202                   69.3109                   105.2616                  41.4367                   67.7791                   57.1402                   109.8954                  30.8058                   29.4279                   7.0                       7.6158                    54.2033                   10.198                    70.0357                   9.434                     106.1037                  23.5372                   62.2415                   8.544                     
28                        13.0                      78.5875                   108.9082                  106.2121                  96.6488                   133.9627                  134.3726                  89.493                    96.5194                   100.449                   82.7103                   89.8888                   102.0196                  76.4003                   120.8801                  137.0036                  106.8504                  100.439                   40.3113                   28.8617                   9.8995                    102.4158                  149.2515                  88.1192                   65.4599                   65.0                      79.1202                   99999.0                   143.3876                  104.4797                  44.8219                   13.3417                   106.8878                  158.9371                  97.9439                   108.4159                  85.8662                   85.1469                   126.9094                  70.2282                   145.0138                  85.703                    99.0454                   102.6158                  137.3536                  80.2309                   
29                        130.5105                  70.7672                   50.3289                   112.9292                  79.0759                   13.3417                   62.8013                   96.8762                   70.4557                   143.5618                  67.3573                   92.7793                   125.6344                  72.8629                   30.2655                   18.6011                   70.6045                   56.356                    107.4477                  124.3262                  141.1737                  64.9384                   69.6563                   83.2166                   80.2808                   92.3959                   69.3109                   143.3876                  99999.0                   118.4061                  99.2824                   133.9627                  52.469                    68.0955                   45.618                    48.8467                   64.6607                   67.0075                   16.5529                   75.2861                   3.6056                    68.0074                   123.9758                  51.4782                   7.6158                    73.4098                   
30                        99.0202                   106.827                   124.3262                  6.0828                    40.7063                   105.0809                  155.6021                  26.1725                   50.1199                   27.4591                   108.5772                  29.7321                   8.2462                    106.4002                  88.5438                   101.2028                  47.8017                   120.283                   103.4456                  112.45                    111.0405                  54.231                    73.3757                   40.4599                   97.9439                   53.2259                   105.2616                  104.4797                  118.4061                  99999.0                   80.0062                   107.042                   66.8506                   84.4334                   89.627                    122.2865                  109.7862                  112.0446                  106.4049                  97.6524                   121.8401                  114.2147                  8.6023                    117.686                   117.652                   113.4063                  
31                        32.5269                   41.7732                   71.0634                   79.3095                   58.0517                   89.3588                   100.6231                  57.4282                   55.3624                   88.0057                   45.5412                   56.0803                   81.0247                   40.025                    76.0592                   92.2009                   66.4078                   63.2851                   23.5372                   35.6931                   44.8219                   60.4152                   107.8378                  50.3587                   27.8927                   28.0713                   41.4367                   44.8219                   99.2824                   80.0062                   99999.0                   38.0132                   63.0079                   116.7647                  53.6656                   70.0071                   48.3735                   48.8365                   82.7345                   31.257                    101.1336                  50.2195                   77.8781                   64.0078                   93.6216                   46.1736                   
32                        8.0623                    67.0671                   97.1236                   108.0417                  93.984                    125.2517                  121.6963                  89.2693                   92.5743                   106.3203                  71.1688                   89.0505                   105.5746                  64.846                    113.1459                  128.8875                  103.3683                  88.6002                   28.1603                   15.5242                   7.2111                    98.0051                   145.3616                  85.703                    54.5619                   62.2977                   67.7791                   13.3417                   133.9627                  107.042                   38.0132                   99999.0                   101.0198                  154.5477                  89.0225                   96.7678                   74.3303                   73.3757                   117.6435                  59.4811                   135.3699                  73.7631                   102.489                   91.0824                   127.6244                  68.1542                   
33                        95.268                    59.1354                   63.8122                   61.7414                   26.6833                   39.2046                   92.7631                   44.4072                   18.0278                   91.2195                   58.5491                   40.3113                   73.6817                   60.0333                   22.2036                   37.2156                   20.0                      62.6498                   80.6226                   96.6023                   107.8007                  12.6491                   47.676                    31.0161                   58.8558                   45.2769                   57.1402                   106.8878                  52.469                    66.8506                   63.0079                   101.0198                  99999.0                   55.0273                   29.1548                   61.5873                   58.0517                   61.0                      39.5601                   55.3263                   55.7315                   63.1506                   71.8401                   58.5918                   50.9608                   65.3758                   
34                        148.1891                  111.8794                  107.2007                  78.4347                   63.6553                   59.808                    128.7517                  77.201                    62.426                    111.6826                  110.4536                  74.6525                   92.6553                   113.1371                  55.1453                   51.6236                   52.4976                   109.2932                  135.5581                  151.2878                  161.0373                  56.6039                   11.1803                   72.1803                   113.5077                  94.2019                   109.8954                  158.9371                  68.0955                   84.4334                   116.7647                  154.5477                  55.0273                   99999.0                   79.3095                   105.0762                  109.2245                  112.2185                  68.6804                   109.6586                  71.3442                   114.1578                  92.6984                   104.3887                  72.9178                   117.516                   
35                        85.1469                   32.7567                   35.4683                   85.4283                   49.5782                   36.2353                   66.0681                   64.1405                   40.3113                   110.4943                  31.1448                   60.208                    95.1893                   34.2053                   26.4008                   40.4599                   47.4342                   33.541                    63.7024                   80.6598                   96.2133                   38.6005                   74.0608                   49.3964                   37.4433                   50.1597                   30.8058                   97.9439                   45.618                    89.627                    53.6656                   89.0225                   29.1548                   79.3095                   99999.0                   33.3017                   30.0                      33.0                      29.0689                   32.7567                   47.5395                   35.0143                   92.7847                   29.6816                   40.1622                   38.2099                   
36                        95.5667                   29.8329                   2.2361                    118.3427                  82.7345                   48.3735                   33.6155                   96.4002                   73.5527                   141.6616                  25.7099                   92.6175                   127.4127                  32.0156                   50.2195                   56.1427                   80.604                    8.6023                    68.6222                   84.1724                   103.7304                  71.8401                   102.1078                  81.8352                   43.4166                   77.6209                   29.4279                   108.4159                  48.8467                   122.2865                  70.0071                   96.7678                   61.5873                   105.0762                  33.3017                   99999.0                   22.561                    23.4094                   38.2099                   39.1152                   48.3011                   23.2594                   124.8519                  6.0                       41.2311                   29.0689                   
37                        73.0068                   7.2801                    23.1948                   106.6677                  73.0616                   59.9416                   52.3927                   83.6301                   64.846                    126.2101                  3.1623                    80.2808                   113.8464                  9.4868                    55.109                    66.3099                   74.0945                   15.0                      46.2385                   62.1772                   81.3449                   65.192                    104.0433                  70.0                      21.0238                   60.4649                   7.0                       85.8662                   64.6607                   109.7862                  48.3735                   74.3303                   58.0517                   109.2245                  30.0                      22.561                    99999.0                   3.0                       50.2494                   17.1172                   65.1153                   5.099                     111.036                   16.7631                   57.3847                   8.9443                    
38                        72.3671                   7.0711                    23.7697                   109.0183                  75.6637                   62.6099                   51.788                    85.9127                   67.5426                   128.0625                  3.6056                    82.6196                   115.9741                  9.0                       58.0517                   69.0797                   76.896                    15.2971                   45.2217                   60.8358                   80.3243                   68.0074                   107.042                   72.4224                   21.095                    62.2013                   7.6158                    85.1469                   67.0075                   112.0446                  48.8365                   73.3757                   61.0                      112.2185                  33.0                      23.4094                   3.0                       99999.0                   52.8394                   17.72                     67.3573                   2.2361                    113.1371                  17.8885                   59.6657                   6.4031                    
39                        114.057                   55.8032                   40.1123                   101.2373                  66.0984                   10.198                    60.4152                   83.4326                   57.0088                   130.5067                  52.6972                   79.3095                   113.2166                  57.8014                   18.6011                   18.0                      59.0339                   44.3847                   91.4385                   108.3744                  124.8519                  52.2015                   67.5426                   69.2315                   64.3817                   76.531                    54.2033                   126.9094                  16.5529                   106.4049                  82.7345                   117.6435                  39.5601                   68.6804                   29.0689                   38.2099                   50.2494                   52.8394                   99999.0                   59.4138                   18.6815                   54.1202                   111.3194                  39.2938                   12.0                      59.1692                   
40                        57.2451                   10.7703                   40.0125                   95.1893                   64.195                    68.0147                   69.4262                   71.8679                   57.2713                   111.866                   14.3178                   68.9638                   100.896                   9.434                     59.0593                   73.0068                   67.7422                   32.0624                   32.2025                   49.0408                   66.6483                   59.3043                   102.9563                  59.5063                   5.0                       45.9674                   10.198                    70.2282                   75.2861                   97.6524                   31.257                    59.4811                   55.3263                   109.6586                  32.7567                   39.1152                   17.1172                   17.72                     59.4138                   99999.0                   76.4003                   19.3132                   97.949                    33.1361                   68.6003                   16.4012                   
41                        132.0984                  71.4213                   49.6588                   116.3873                  82.3772                   16.7631                   60.407                    100.1299                  73.6817                   146.8911                  67.897                    96.026                    129.031                   73.5527                   33.541                    22.2036                   74.0405                   56.0803                   108.6002                  125.4193                  142.5798                  68.2495                   73.1095                   86.3713                   81.4002                   95.0368                   70.0357                   145.0138                  3.6056                    121.8401                  101.1336                  135.3699                  55.7315                   71.3442                   47.5395                   48.3011                   65.1153                   67.3573                   18.6815                   76.4003                   99999.0                   68.2495                   127.346                   51.3128                   7.8102                    73.7564                   
42                        72.9932                   8.544                     23.4094                   111.2115                  77.8974                   63.9766                   50.4876                   88.0909                   69.7782                   130.0961                  5.6569                    84.8116                   118.1059                  10.198                    59.8415                   70.5762                   79.1202                   14.8661                   45.607                    60.9262                   80.6536                   70.2282                   109.0734                  74.6324                   22.3607                   64.2028                   9.434                     85.703                    68.0074                   114.2147                  50.2195                   73.7631                   63.1506                   114.1578                  35.0143                   23.2594                   5.099                     2.2361                    54.1202                   19.3132                   68.2495                   99999.0                   115.2606                  18.0278                   60.6053                   5.831                     
43                        94.4299                   107.5639                  126.8267                  14.3178                   45.2217                   110.6345                  158.373                   28.6531                   54.4243                   20.0                      109.6038                  32.6497                   3.1623                    106.9626                  93.8616                   107.2007                  53.6004                   122.2865                  101.0198                  108.9082                  106.0754                  59.203                    81.5966                   43.4166                   97.8008                   52.4309                   106.1037                  99.0454                   123.9758                  8.6023                    77.8781                   102.489                   71.8401                   92.6984                   92.7847                   124.8519                  111.036                   113.1371                  111.3194                  97.949                    127.346                   115.2606                  99999.0                   120.0                     122.8007                  114.0219                  
44                        89.7385                   24.0416                   7.2801                    113.8991                  78.5684                   49.4773                   38.9102                   91.6788                   69.527                    136.5284                  19.9249                   87.9659                   122.6132                  26.2488                   49.2544                   56.8859                   77.1038                   5.099                     62.9682                   78.721                    98.0816                   68.2422                   100.8067                  77.2334                   37.4833                   72.0902                   23.5372                   102.6158                  51.4782                   117.686                   64.0078                   91.0824                   58.5918                   104.3887                  29.6816                   6.0                       16.7631                   17.8885                   39.2938                   33.1361                   51.3128                   18.0278                   120.0                     99999.0                   43.909                    23.8537                   
45                        124.4227                  63.6396                   42.72                     112.361                   77.6209                   14.1421                   56.5155                   95.1262                   68.6586                   142.1267                  60.1415                   91.0055                   124.6194                  65.7647                   29.1548                   21.6333                   70.0071                   48.7647                   100.8018                  117.6138                  134.8332                  63.6003                   73.4983                   81.0494                   73.6003                   88.459                    62.2415                   137.3536                  7.6158                    117.652                   93.6216                   127.6244                  50.9608                   72.9178                   40.1622                   41.2311                   57.3847                   59.6657                   12.0                      68.6003                   7.8102                    60.6053                   122.8007                  43.909                    99999.0                   66.0681                   
46                        67.6018                   6.7082                    29.1548                   110.6797                  78.2943                   68.884                    55.1453                   87.4185                   70.5762                   128.2225                  7.0711                    84.3149                   116.9316                  7.0711                    63.7887                   75.2396                   80.3617                   20.6155                   40.025                    55.1543                   75.0                      71.5681                   112.0045                  74.4312                   18.3848                   62.2896                   8.544                     80.2309                   73.4098                   113.4063                  46.1736                   68.1542                   65.3758                   117.516                   38.2099                   29.0689                   8.9443                    6.4031                    59.1692                   16.4012                   73.7564                   5.831                     114.0219                  23.8537                   66.0681                   99999.0                   
;
SCALAR TOTAL  /46/;
SCALAR NODES  /40/;
SCALAR W  /2/;
SCALAR Y  /92/;
SCALAR M  /1/;
BINARY VARIABLE X(I,J,K)  x variable ;
INTEGER VARIABLE U(K,O)    u variable ;
VARIABLE   Z         objective ;
EQUATIONS
CON1(K)   constraint 1
CON2(K)   constraint 2
CON3   constraint 3
CON4(O)   constraint 4
CON5(O,K)   constraint 5
CON6(O,K)   constraint 6
CON7(K)   constraint 7
CON10(O,P,K)   constraint 10
CON11(O,K)   constraint 11;
CON1(K).. SUM(O,X(K,O,K)) =E= 1;
CON2(K).. SUM(O,X(O,K,K)) =E= 1;
CON3..  SUM((K,L),X(K,L,K)) =E= 0;
CON4(O) .. SUM(K,X(K,O,K)) + SUM((P,K),X(P,O,K)) =e= W;
CON5(O,K) .. X(K,O,K) + SUM(P,X(P,O,K)) =L= 1;
CON6(O,K) .. X(K,O,K) + SUM(P,X(P,O,K)) - X(O,K,K) - SUM(P,X(O,P,K)) =e= 0;
CON7(K) .. Z =G= SUM(O,C(K,O)*X(K,O,K) + C(O,K)*X(O,K,K)) + SUM((P,O),C(P,O)*X(P,O,K));
CON10(O,P,K) .. U(K,O) - U(K,P) + (TOTAL-1)*X(O,P,K) + (TOTAL-3)*X(P,O,K) =L= (TOTAL-2);
CON11(O,K) .. X(O,O,K) =e= 0;
MODEL TRANSPORT /ALL/;
Option Reslim = 28800;
SOLVE TRANSPORT USING MIP MINIMIZING Z ;
