SET
I  first /1*56/
K(I)  depot1 /1*6/
O(I)  node1 /7*56/
alias(I,J);
alias(K,L);
alias(O,P);
TABLE C(I,J)  node to node
                          1                         2                         3                         4                         5                         6                         7                         8                         9                         10                        11                        12                        13                        14                        15                        16                        17                        18                        19                        20                        21                        22                        23                        24                        25                        26                        27                        28                        29                        30                        31                        32                        33                        34                        35                        36                        37                        38                        39                        40                        41                        42                        43                        44                        45                        46                        47                        48                        49                        50                        51                        52                        53                        54                        55                        56                        
1                         99999.0                   99999.0                   99999.0                   99999.0                   99999.0                   99999.0                   80.05                     82.4621                   90.2441                   95.7549                   75.1332                   120.6151                  12.8062                   117.6435                  130.7823                  90.4434                   95.7183                   67.082                    85.7263                   99.1817                   52.4976                   77.3692                   103.7738                  5.0                       64.56                     62.6099                   66.7608                   105.2616                  17.0294                   98.9545                   103.2473                  107.5639                  78.5875                   107.8981                  89.0225                   57.5674                   142.3938                  92.4175                   92.6553                   99.6393                   95.901                    81.8596                   32.5576                   102.1812                  76.5376                   86.977                    86.4002                   93.4719                   62.5859                   102.6109                  32.0                      85.0                      81.4371                   19.4165                   67.1863                   107.4895                  
2                         99999.0                   99999.0                   99999.0                   99999.0                   99999.0                   99999.0                   78.0064                   16.7631                   24.5153                   95.4149                   10.198                    68.942                    72.1734                   52.3927                   105.6835                  79.6053                   67.2681                   3.6056                    77.5242                   109.3435                  14.0357                   11.7047                   73.5527                   62.6418                   3.6056                    100.7224                  4.0                       54.0833                   82.5651                   33.2415                   99.363                    59.9083                   75.213                    52.3546                   23.4094                   9.2195                    81.3941                   26.6833                   93.4773                   34.1321                   30.2655                   65.7419                   94.4299                   95.2575                   39.0512                   75.591                    21.0238                   72.7324                   3.1623                    36.8782                   97.1648                   24.6982                   66.1891                   83.7257                   2.2361                    41.7732                   
3                         99999.0                   99999.0                   99999.0                   99999.0                   99999.0                   99999.0                   95.6033                   14.0                      6.0                       111.1261                  21.1896                   58.0345                   102.489                   24.0832                   108.462                   93.3381                   74.6324                   29.1204                   92.7631                   127.4402                  44.1814                   19.0263                   78.3901                   92.8924                   32.0624                   127.2006                  30.0167                   47.5395                   112.969                   4.4721                    113.1724                  55.0818                   92.8009                   41.3038                   8.544                     39.1152                   58.3095                   4.1231                    109.8772                  4.4721                    1.0                       79.9812                   124.0645                  108.3005                  47.8539                   89.8276                   11.7047                   83.0963                   33.541                    6.7082                    127.5774                  23.3452                   80.7217                   114.1271                  29.1548                   11.4018                   
4                         99999.0                   99999.0                   99999.0                   99999.0                   99999.0                   99999.0                   26.0768                   110.3449                  116.0                     9.434                     111.6647                  90.7083                   90.7965                   125.5388                  52.0                      27.7849                   50.6952                   107.6476                  27.6586                   10.0499                   95.7706                   107.7126                  52.3927                   103.0                     100.439                   54.4059                   100.8018                  85.0882                   103.1601                  119.3315                  12.1655                   79.712                    28.8444                   93.5201                   112.4856                  97.4166                   123.6932                  116.7776                  10.6301                   124.7397                  121.0826                  40.4599                   126.6965                  17.0                      141.0319                  30.8058                   109.6221                  40.3113                   103.1746                  123.065                   106.2826                  97.0824                   39.6989                   98.7168                   103.0049                  127.0039                  
5                         99999.0                   99999.0                   99999.0                   99999.0                   99999.0                   99999.0                   16.1245                   75.6042                   80.7217                   26.6271                   78.032                    58.0345                   81.6333                   89.5545                   43.8634                   8.4853                    17.0294                   75.1532                   9.2195                    44.2832                   65.9697                   73.4983                   22.4722                   88.2553                   68.0294                   66.4831                   67.9779                   50.0                      95.7183                   83.5464                   28.4253                   45.5412                   14.5602                   58.1893                   77.1557                   66.4078                   90.5539                   81.3449                   25.9422                   89.1067                   85.5628                   6.0828                    118.1186                  23.8537                   110.1363                  5.3852                    74.411                    8.0623                    71.3092                   87.2067                   103.7111                  61.5224                   6.0                       92.6553                   70.214                    91.0494                   
6                         99999.0                   99999.0                   99999.0                   99999.0                   99999.0                   99999.0                   81.3941                   53.4883                   51.1957                   90.5207                   62.2415                   10.6301                   122.6744                  36.4005                   68.6222                   72.7805                   49.2443                   66.7308                   74.9667                   108.9312                  72.9178                   56.3649                   47.5395                   119.8082                  63.8201                   127.7693                  61.8547                   17.4642                   136.0037                  46.0977                   88.955                    20.2237                   79.2275                   13.4536                   48.7647                   68.884                    25.0                      49.8197                   90.7083                   52.0096                   51.2445                   64.1249                   153.2221                  83.5703                   96.566                    71.0211                   48.7032                   59.6657                   67.6757                   47.0106                   148.5295                  40.4969                   65.123                    135.2036                  62.9682                   47.3814                   
7                         80.05                     78.0064                   95.6033                   26.0768                   16.1245                   81.3941                   99999.0                   84.8999                   90.9065                   18.0278                   85.7963                   74.0                      72.8011                   102.9563                  54.037                    12.8062                   33.1361                   81.6088                   8.0623                    31.8904                   69.7711                   82.0366                   38.3275                   82.201                    74.4043                   50.9902                   74.8131                   65.1153                   86.406                    94.8683                   24.0832                   61.2046                   2.8284                    73.0068                   87.4586                   71.3442                   106.3015                  91.8314                   15.6525                   100.0                     96.2133                   17.4642                   109.5628                  22.2036                   115.0043                  11.7047                   84.5044                   23.7697                   77.1038                   98.737                    92.6499                   72.4224                   16.4924                   82.7345                   77.0065                   102.9272                  
8                         82.4621                   16.7631                   14.0                      110.3449                  75.6042                   53.4883                   84.8999                   99999.0                   8.0                       101.2373                  9.2195                    59.2284                   88.5664                   35.7771                   103.846                   84.0238                   67.5426                   16.1245                   82.8794                   116.7776                  30.2655                   5.099                     72.45                     79.404                    18.1108                   113.842                   16.0312                   46.0435                   99.2472                   16.4924                   104.0192                  53.0094                   82.0731                   41.9762                   6.7082                    25.1794                   66.6033                   10.0499                   99.7246                   18.1108                   14.0357                   70.2922                   111.0856                  99.4032                   43.566                    80.2808                   5.0                       74.9466                   19.9249                   20.2237                   113.7717                  16.2788                   70.9366                   100.2846                  15.2971                   25.1794                   
9                         90.2441                   24.5153                   6.0                       116.0                     80.7217                   51.1957                   90.9065                   8.0                       99999.0                   106.7755                  15.6525                   58.1378                   96.5194                   28.8444                   106.2826                  89.1964                   71.3442                   23.4094                   88.3912                   122.7884                  38.2099                   13.0384                   75.5844                   87.0919                   26.0768                   121.4578                  24.0208                   46.3897                   107.0794                  8.9443                    109.1238                  53.7587                   88.0909                   41.0122                   3.6056                    33.1361                   61.6117                   2.2361                    105.4182                  10.198                    6.0828                    75.6637                   118.4736                  104.3504                  45.5412                   85.5862                   6.4031                    79.404                    27.6586                   12.3693                   121.6553                  19.4165                   76.3675                   108.1896                  23.1948                   17.2627                   
10                        95.7549                   95.4149                   111.1261                  9.434                     26.6271                   90.5207                   18.0278                   101.2373                  106.7755                  99999.0                   102.8008                  81.7863                   87.3212                   116.1077                  47.1699                   18.3576                   41.4367                   99.0202                   18.3848                   18.4391                   87.6641                   98.7168                   43.566                    98.326                    91.8096                   55.8659                   92.0869                   75.7694                   100.2846                  109.9864                  8.0623                    70.5195                   20.6155                   84.1724                   103.2473                  89.0674                   114.7563                  107.5174                  3.1623                    115.434                   111.8034                  31.1448                   123.7619                  10.2956                   132.8345                  21.4009                   100.4092                  31.0161                   94.6678                   113.7014                  104.6948                  87.7838                   30.4138                   96.1353                   94.3027                   117.6138                  
11                        75.1332                   10.198                    21.1896                   111.6647                  78.032                    62.2415                   85.7963                   9.2195                    15.6525                   102.8008                  99999.0                   67.4463                   82.0549                   44.4185                   109.2383                  86.2844                   71.7844                   8.0623                    84.6286                   117.4564                  24.1868                   6.0828                    77.3692                   71.8053                   13.0                      110.6933                  11.6619                   53.6004                   92.0706                   24.5967                   106.2309                  60.208                    82.9759                   50.2892                   15.6205                   19.4165                   75.8222                   17.8885                   101.0445                  24.5153                   20.8806                   72.4017                   102.8834                  101.8725                  36.0139                   82.3772                   14.2127                   78.2943                   13.0384                   27.8568                   106.7942                  23.1948                   72.9452                   93.4345                   9.8489                    32.573                    
12                        120.6151                  68.942                    58.0345                   90.7083                   58.0345                   10.6301                   74.0                      59.2284                   58.1378                   81.7863                   67.4463                   99999.0                   120.9297                  46.5188                   58.0                      64.4981                   41.1096                   70.9366                   67.1193                   100.2247                  74.8866                   61.4003                   38.3275                   119.6035                  67.082                    122.0                     65.307                    15.6205                   134.618                   54.1479                   79.6994                   13.9284                   72.0278                   17.2627                   55.3263                   71.3442                   32.9848                   57.0351                   82.201                    60.2993                   59.0339                   57.1402                   152.9706                  74.3303                   102.7716                  63.1269                   54.7449                   51.3517                   71.1126                   55.5788                   146.4923                  44.5982                   58.1378                   133.4054                  66.7083                   56.5155                   
13                        12.8062                   72.1734                   102.489                   90.7965                   81.6333                   122.6744                  72.8011                   88.5664                   96.5194                   87.3212                   82.0549                   120.9297                  99999.0                   122.7844                  125.2996                  84.0952                   92.3147                   74.027                    79.2023                   89.0225                   58.3095                   83.4865                   100.2646                  17.6918                   70.4557                   50.1597                   72.5603                   106.0                     14.2127                   104.9381                  95.0789                   107.4151                  71.6938                   109.5901                  94.8947                   63.3877                   144.9966                  98.6154                   84.1724                   106.3015                  102.3963                  77.1038                   36.7696                   94.5569                   87.4643                   80.9506                   92.0706                   88.7525                   69.1158                   108.7796                  26.0                      88.8876                   76.5506                   12.53                     73.3348                   113.7453                  
14                        117.6435                  52.3927                   24.0832                   125.5388                  89.5545                   36.4005                   102.9563                  35.7771                   28.8444                   116.1077                  44.4185                   46.5188                   122.7844                  99999.0                   103.2279                  97.7548                   75.8024                   51.8845                   98.4124                   133.7647                  65.146                    40.7185                   77.1557                   114.826                   53.1413                   141.4214                  50.9215                   42.4264                   134.2013                  20.0                      116.4989                  49.5782                   100.3195                  33.9706                   29.0689                   60.0833                   36.0555                   26.6271                   115.4859                  22.8035                   24.7588                   85.8662                   146.8196                  111.252                   70.7248                   94.8947                   31.3847                   85.703                    55.5428                   17.6918                   148.4318                  35.0                      86.764                    134.8518                  50.6952                   14.7648                   
15                        130.7823                  105.6835                  108.462                   52.0                      43.8634                   68.6222                   54.037                    103.846                   106.2826                  47.1699                   109.2383                  58.0                      125.2996                  103.2279                  99999.0                   41.6173                   39.0128                   108.9036                  46.6154                   61.6847                   104.0192                  103.5857                  32.1403                   132.0341                  102.489                   102.45                    101.7104                  61.7738                   139.2911                  105.603                   40.2492                   54.2033                   54.4059                   69.6419                   102.7862                  103.0437                  87.6584                   106.0424                  49.6488                   111.8928                  109.3846                  49.0408                   161.9012                  36.8917                   144.5337                  44.4185                   100.8811                  37.6431                   106.3814                  108.2266                  146.4787                  87.6413                   49.3964                   136.0037                  103.8171                  110.5351                  
16                        90.4434                   79.6053                   93.3381                   27.7849                   8.4853                    72.7805                   12.8062                   84.0238                   89.1964                   18.3576                   86.2844                   64.4981                   84.0952                   97.7548                   41.6173                   99999.0                   23.5372                   83.1865                   5.0                       36.4005                   73.3757                   81.8413                   27.074                    92.1792                   76.0263                   63.5295                   76.0592                   57.5847                   97.949                    92.0217                   20.0                      52.6308                   12.8062                   65.9242                   85.6329                   74.0945                   97.3242                   89.8276                   18.0278                   97.591                    94.0479                   13.8924                   120.8305                  15.6525                   117.9237                  4.1231                    82.8794                   13.1529                   79.2023                   95.6713                   104.8618                  70.0071                   13.4164                   94.5145                   78.2943                   99.4887                   
17                        95.7183                   67.2681                   74.6324                   50.6952                   17.0294                   49.2443                   33.1361                   67.5426                   71.3442                   41.4367                   71.7844                   41.1096                   92.3147                   75.8024                   39.0128                   23.5372                   99999.0                   70.6116                   26.0192                   59.7746                   65.0077                   66.4831                   8.0623                    96.2549                   63.9531                   82.8613                   63.3482                   34.4384                   106.527                   72.6223                   40.8167                   29.1204                   31.4006                   42.9418                   67.7422                   64.1249                   73.8241                   71.5612                   41.4849                   78.6003                   75.452                    17.4642                   127.8828                  35.5106                   106.3015                  22.0227                   65.3682                   10.4403                   67.7422                   75.9276                   115.9741                  51.9711                   18.3848                   104.0625                  65.5134                   79.2465                   
18                        67.082                    3.6056                    29.1204                   107.6476                  75.1532                   66.7308                   81.6088                   16.1245                   23.4094                   99.0202                   8.0623                    70.9366                   74.027                    51.8845                   108.9036                  83.1865                   70.6116                   99999.0                   81.1234                   112.9292                  16.4924                   11.4018                   76.7919                   63.7887                   7.2111                    103.7882                  7.2801                    56.3205                   84.0119                   32.311                    102.9563                  62.3699                   78.8162                   54.1295                   22.8254                   12.083                    82.0244                   25.632                    97.0824                   32.5576                   28.8617                   69.3181                   95.0789                   98.8383                   35.6931                   79.177                    20.8087                   76.2168                   5.3852                    35.7351                   98.732                    26.4008                   69.7711                   85.3756                   5.099                     40.5216                   
19                        85.7263                   77.5242                   92.7631                   27.6586                   9.2195                    74.9667                   8.0623                    82.8794                   88.3912                   18.3848                   84.6286                   67.1193                   79.2023                   98.4124                   46.6154                   5.0                       26.0192                   81.1234                   99999.0                   35.3553                   70.5762                   80.4301                   30.5941                   87.5557                   73.9256                   59.0339                   74.0945                   59.203                    93.0215                   91.6788                   21.9317                   54.7449                   7.8102                    67.3573                   84.8646                   71.5891                   99.7246                   89.1403                   17.2047                   97.0824                   93.4345                   12.8062                   115.9526                  18.4391                   115.4513                  4.0                       82.0244                   16.1245                   76.9415                   95.4254                   99.8649                   69.4262                   12.0416                   89.5545                   76.3217                   99.4032                   
20                        99.1817                   109.3435                  127.4402                  10.0499                   44.2832                   108.9312                  31.8904                   116.7776                  122.7884                  18.4391                   117.4564                  100.2247                  89.0225                   133.7647                  61.6847                   36.4005                   59.7746                   112.9292                  35.3553                   99999.0                   100.1249                  113.8464                  61.9839                   102.489                   105.7592                  48.3011                   106.3015                  93.984                    100.6032                  126.6057                  22.2036                   88.8876                   34.7131                   102.3181                  119.3315                  102.2008                  133.1953                  123.6932                  18.3848                   131.8218                  128.0625                  48.0208                   124.0363                  27.0185                   145.3444                  38.9102                   116.3873                  49.3356                   108.2312                  130.4301                  102.3572                  104.2017                  47.1699                   95.8853                   108.4666                  134.5251                  
21                        52.4976                   14.0357                   44.1814                   95.7706                   65.9697                   72.9178                   69.7711                   30.2655                   38.2099                   87.6641                   24.1868                   74.8866                   58.3095                   65.146                    104.0192                  73.3757                   65.0077                   16.4924                   70.5762                   100.1249                  99999.0                   25.1794                   72.1734                   49.7695                   12.1655                   87.6584                   14.3178                   59.3633                   69.1231                   46.6905                   92.477                    63.9531                   67.082                    59.5483                   36.6742                   5.099                     91.6079                   40.3113                   85.4225                   48.0416                   44.1022                   59.9083                   82.365                    88.8651                   45.2769                   69.2604                   33.9559                   68.593                    11.1803                   50.4876                   83.5464                   33.6006                   60.1664                   70.0357                   15.0333                   55.4437                   
22                        77.3692                   11.7047                   19.0263                   107.7126                  73.4983                   56.3649                   82.0366                   5.099                     13.0384                   98.7168                   6.0828                    61.4003                   83.4865                   40.7185                   103.5857                  81.8413                   66.4831                   11.4018                   80.4301                   113.8464                  25.1794                   99999.0                   71.8401                   74.3303                   13.0384                   109.444                   11.0                      47.5184                   94.1488                   21.587                    101.8332                  54.1479                   79.2086                   44.2719                   11.7047                   20.0998                   70.7248                   15.1327                   97.0824                   23.0217                   19.0                      68.0074                   106.1037                  97.3499                   42.0476                   78.0064                   9.434                     73.3553                   14.8661                   25.318                    108.6738                  17.1172                   68.6003                   95.1893                   10.198                    30.2655                   
23                        103.7738                  73.5527                   78.3901                   52.3927                   22.4722                   47.5395                   38.3275                   72.45                     75.5844                   43.566                    77.3692                   38.3275                   100.2646                  77.1557                   32.1403                   27.074                    8.0623                    76.7919                   30.5941                   61.9839                   72.1734                   71.8401                   99999.0                   104.3168                  70.3491                   88.955                    69.5845                   34.8281                   114.4771                  76.0066                   41.4367                   28.3019                   37.0                      43.4166                   72.0139                   71.0                      71.3092                   75.591                    44.1814                   82.1523                   79.2591                   24.4131                   135.9154                  36.0555                   112.45                    26.6833                   69.857                    14.5602                   74.2428                   79.0569                   123.7457                  56.4624                   25.2389                   111.9464                  71.7008                   82.0061                   
24                        5.0                       62.6418                   92.8924                   103.0                     88.2553                   119.8082                  82.201                    79.404                    87.0919                   98.326                    71.8053                   119.6035                  17.6918                   114.826                   132.0341                  92.1792                   96.2549                   63.7887                   87.5557                   102.489                   49.7695                   74.3303                   104.3168                  99999.0                   61.6847                   67.1193                   63.9062                   104.1393                  21.095                    95.8801                   105.6835                  106.7755                  80.604                    106.4002                  86.0233                   54.7814                   140.46                    89.2861                   95.2575                   96.3172                   92.6499                   83.006                    33.4215                   104.3935                  71.8401                   88.6002                   83.4865                   94.541                    59.4811                   99.4585                   36.1248                   82.7647                   82.6378                   24.0416                   64.195                    104.2929                  
25                        64.56                     3.6056                    32.0624                   100.439                   68.0294                   63.8201                   74.4043                   18.1108                   26.0768                   91.8096                   13.0                      67.082                    70.4557                   53.1413                   102.489                   76.0263                   63.9531                   7.2111                    73.9256                   105.7592                  12.1655                   13.0384                   70.3491                   61.6847                   99999.0                   97.6934                   2.2361                    52.0                      81.2527                   34.5254                   95.7706                   57.5674                   71.6101                   50.774                    24.5153                   7.0711                    80.9197                   28.1603                   89.8721                   36.0                      32.0156                   62.1691                   93.9149                   91.6788                   42.45                     72.0069                   21.8403                   69.2604                   4.1231                    38.3275                   95.7079                   23.4307                   62.6099                   82.201                    3.1623                    43.2897                   
26                        62.6099                   100.7224                  127.2006                  54.4059                   66.4831                   127.7693                  50.9902                   113.842                   121.4578                  55.8659                   110.6933                  122.0                     50.1597                   141.4214                  102.45                    63.5295                   82.8613                   103.7882                  59.0339                   48.3011                   87.6584                   109.444                   88.955                    67.1193                   97.6934                   99999.0                   99.1615                   110.4536                  58.0517                   128.0625                  63.6553                   108.3421                  52.0                      117.1068                  118.6802                  91.7061                   152.6434                  123.0813                  53.0754                   131.6055                  127.4873                  65.521                    80.2247                   65.8559                   128.2264                  62.6498                   115.5206                  74.4648                   98.4124                   132.1855                  56.1427                   106.8878                  64.56                     52.7731                   100.8464                  137.0328                  
27                        66.7608                   4.0                       30.0167                   100.8018                  67.9779                   61.8547                   74.8131                   16.0312                   24.0208                   92.0869                   11.6619                   65.307                    72.5603                   50.9215                   101.7104                  76.0592                   63.3482                   7.2801                    74.0945                   106.3015                  14.3178                   11.0                      69.5845                   63.9062                   2.2361                    99.1615                   99999.0                   50.3289                   83.4326                   32.3883                   95.8801                   56.0446                   72.0069                   48.8774                   22.3607                   9.2195                    78.7464                   26.0768                   90.2109                   34.0147                   30.0                      62.1772                   96.1509                   91.7061                   42.9535                   72.0694                   19.6469                   68.9493                   5.831                     36.2215                   97.8621                   21.4009                   62.6498                   84.3445                   2.2361                    41.1947                   
28                        105.2616                  54.0833                   47.5395                   85.0882                   50.0                      17.4642                   65.1153                   46.0435                   46.3897                   75.7694                   53.6004                   15.6205                   106.0                     42.4264                   61.7738                   57.5847                   34.4384                   56.3205                   59.203                    93.984                    59.3633                   47.5184                   34.8281                   104.1393                  52.0                      110.4536                  50.3289                   99999.0                   119.5408                  44.2719                   75.1798                   7.6158                    62.8013                   8.6023                    43.1856                   55.9464                   42.19                     45.7056                   75.6108                   50.5964                   48.5077                   47.676                    137.5354                  69.8355                   89.4539                   55.3624                   42.0119                   44.7772                   56.0803                   46.6154                   131.727                   30.4138                   48.6621                   118.5116                  51.8652                   48.7647                   
29                        17.0294                   82.5651                   112.969                   103.1601                  95.7183                   136.0037                  86.406                    99.2472                   107.0794                  100.2846                  92.0706                   134.618                   14.2127                   134.2013                  139.2911                  97.949                    106.527                   84.0119                   93.0215                   100.6032                  69.1231                   94.1488                   114.4771                  21.095                    81.2527                   58.0517                   83.4326                   119.5408                  99999.0                   115.7325                  108.1573                  121.2106                  85.4283                   122.8007                  105.7592                  74.2159                   157.867                   109.2383                  97.1236                   116.559                   112.7874                  91.2634                   23.5372                   107.912                   92.6499                   94.8947                   103.0776                  102.9029                  79.4292                   119.4362                  15.0333                   101.0198                  90.6973                   5.3852                    83.9524                   124.3382                  
30                        98.9545                   33.2415                   4.4721                    119.3315                  83.5464                   46.0977                   94.8683                   16.4924                   8.9443                    109.9864                  24.5967                   54.1479                   104.9381                  20.0                      105.603                   92.0217                   72.6223                   32.311                    91.6788                   126.6057                  46.6905                   21.587                    76.0066                   95.8801                   34.5254                   128.0625                  32.3883                   44.2719                   115.7325                  99999.0                   111.7318                  51.8652                   92.0869                   37.6563                   10.0499                   41.5933                   53.8516                   6.7082                    108.8531                  6.3246                    5.3852                    78.8733                   127.3892                  106.7755                  52.3259                   88.6172                   13.0                      81.3941                   36.4005                   4.1231                    130.2306                  22.4722                   79.6492                   116.7262                  31.7805                   9.0554                    
31                        103.2473                  99.363                    113.1724                  12.1655                   28.4253                   88.955                    24.0832                   104.0192                  109.1238                  8.0623                    106.2309                  79.6994                   95.0789                   116.4989                  40.2492                   20.0                      40.8167                   102.9563                  21.9317                   22.2036                   92.477                    101.8332                  41.4367                   105.6835                  95.7706                   63.6553                   95.8801                   75.1798                   108.1573                  111.7318                  99999.0                   69.3542                   26.3059                   83.7257                   105.5509                  93.5201                   112.641                   109.7133                  11.1803                   117.3882                  113.8991                  33.8378                   131.6055                  5.3852                    137.3827                  23.8537                   102.8251                  30.8058                   98.8383                   115.3126                  112.7298                  89.8721                   33.2866                   104.0625                  98.1122                   119.0042                  
32                        107.5639                  59.9083                   55.0818                   79.712                    45.5412                   20.2237                   61.2046                   53.0094                   53.7587                   70.5195                   60.208                    13.9284                   107.4151                  49.5782                   54.2033                   52.6308                   29.1204                   62.3699                   54.7449                   88.8876                   63.9531                   54.1479                   28.3019                   106.7755                  57.5674                   108.3421                  56.0446                   7.6158                    121.2106                  51.8652                   69.3542                   99999.0                   59.0762                   15.6205                   50.4876                   60.9262                   45.0999                   53.1507                   70.6045                   58.1893                   56.0446                   44.0114                   140.0357                  63.9766                   96.1873                   50.8035                   49.163                    39.5601                   61.6847                   54.231                    132.8533                  37.054                    45.0111                   119.8541                  57.7235                   56.356                    
33                        78.5875                   75.213                    92.8009                   28.8444                   14.5602                   79.2275                   2.8284                    82.0731                   88.0909                   20.6155                   82.9759                   72.0278                   71.6938                   100.3195                  54.4059                   12.8062                   31.4006                   78.8162                   7.8102                    34.7131                   67.082                    79.2086                   37.0                      80.604                    71.6101                   52.0                      72.0069                   62.8013                   85.4283                   92.0869                   26.3059                   59.0762                   99999.0                   70.6116                   84.6463                   68.6003                   104.1729                  89.0225                   18.3576                   97.2008                   93.4077                   15.1327                   108.462                   24.0208                   112.2943                  10.8167                   81.6884                   22.4722                   74.3303                   95.9635                   92.0869                   69.6348                   14.1421                   81.8841                   74.2024                   100.1699                  
34                        107.8981                  52.3546                   41.3038                   93.5201                   58.1893                   13.4536                   73.0068                   41.9762                   41.0122                   84.1724                   50.2892                   17.2627                   109.5901                  33.9706                   69.6419                   65.9242                   42.9418                   54.1295                   67.3573                   102.3181                  59.5483                   44.2719                   43.4166                   106.4002                  50.774                    117.1068                  48.8774                   8.6023                    122.8007                  37.6563                   83.7257                   15.6205                   70.6116                   99999.0                   38.1182                   55.6058                   36.1386                   40.0125                   83.9345                   43.9318                   42.2966                   55.5428                   139.807                   78.3901                   85.5102                   63.5689                   37.4833                   53.2259                   54.7083                   39.5601                   135.5065                  27.7308                   56.5155                   122.1188                  50.1199                   41.2311                   
35                        89.0225                   23.4094                   8.544                     112.4856                  77.1557                   48.7647                   87.4586                   6.7082                    3.6056                    103.2473                  15.6205                   55.3263                   94.8947                   29.0689                   102.7862                  85.6329                   67.7422                   22.8254                   84.8646                   119.3315                  36.6742                   11.7047                   72.0139                   86.0233                   24.5153                   118.6802                  22.3607                   43.1856                   105.7592                  10.0499                   105.5509                  50.4876                   84.6463                   38.1182                   99999.0                   31.5753                   60.4401                   4.4721                    101.9117                  13.0                      8.9443                    72.1249                   117.7837                  100.7671                  47.8017                   82.0366                   3.1623                    75.8024                   26.5707                   14.0                      120.2206                  15.8114                   72.8354                   106.7052                  21.8403                   19.0                      
36                        57.5674                   9.2195                    39.1152                   97.4166                   66.4078                   68.884                    71.3442                   25.1794                   33.1361                   89.0674                   19.4165                   71.3442                   63.3877                   60.0833                   103.0437                  74.0945                   64.1249                   12.083                    71.5891                   102.2008                  5.099                     20.0998                   71.0                      54.7814                   7.0711                    91.7061                   9.2195                    55.9464                   74.2159                   41.5933                   93.5201                   60.9262                   68.6003                   55.6058                   31.5753                   99999.0                   87.0057                   35.2278                   86.954                    43.0116                   39.0512                   60.407                    87.2353                   89.6939                   43.8634                   70.0071                   28.8617                   68.4471                   6.7082                    45.3982                   88.6454                   29.0689                   60.7454                   75.1332                   10.0                      50.3587                   
37                        142.3938                  81.3941                   58.3095                   123.6932                  90.5539                   25.0                      106.3015                  66.6033                   61.6117                   114.7563                  75.8222                   32.9848                   144.9966                  36.0555                   87.6584                   97.3242                   73.8241                   82.0244                   99.7246                   133.1953                  91.6079                   70.7248                   71.3092                   140.46                    80.9197                   152.6434                  78.7464                   42.19                     157.867                   53.8516                   112.641                   45.0999                   104.1729                  36.1386                   60.4401                   87.0057                   99999.0                   59.6406                   115.1217                  58.1378                   59.1692                   89.0898                   173.6433                  107.28                    106.066                   95.7549                   61.6198                   84.1724                   84.2912                   52.7731                   170.9854                  58.0086                   90.0888                   157.496                   79.3095                   50.6952                   
38                        92.4175                   26.6833                   4.1231                    116.7776                  81.3449                   49.8197                   91.8314                   10.0499                   2.2361                    107.5174                  17.8885                   57.0351                   98.6154                   26.6271                   106.0424                  89.8276                   71.5612                   25.632                    89.1403                   123.6932                  40.3113                   15.1327                   75.591                    89.2861                   28.1603                   123.0813                  26.0768                   45.7056                   109.2383                  6.7082                    109.7133                  53.1507                   89.0225                   40.0125                   4.4721                    35.2278                   59.6406                   99999.0                   106.2168                  8.544                     4.4721                    76.3806                   120.7021                  104.8904                  47.1699                   86.267                    7.6158                    79.8123                   29.8329                   10.198                    123.7942                  19.8494                   77.1038                   110.3177                  25.318                    15.1327                   
39                        92.6553                   93.4773                   109.8772                  10.6301                   25.9422                   90.7083                   15.6525                   99.7246                   105.4182                  3.1623                    101.0445                  82.201                    84.1724                   115.4859                  49.6488                   18.0278                   41.4849                   97.0824                   17.2047                   18.3848                   85.4225                   97.0824                   44.1814                   95.2575                   89.8721                   53.0754                   90.2109                   75.6108                   97.1236                   108.8531                  11.1803                   70.6045                   18.3576                   83.9345                   101.9117                  86.954                    115.1217                  106.2168                  99999.0                   114.2147                  110.5351                  30.0                      120.6027                  12.8062                   130.6484                  20.5913                   99.0353                   31.0483                   92.6499                   112.6144                  101.5529                  86.5563                   29.2062                   92.9731                   92.4175                   116.6062                  
40                        99.6393                   34.1321                   4.4721                    124.7397                  89.1067                   52.0096                   100.0                     18.1108                   10.198                    115.434                   24.5153                   60.2993                   106.3015                  22.8035                   111.8928                  97.591                    78.6003                   32.5576                   97.0824                   131.8218                  48.0416                   23.0217                   82.1523                   96.3172                   36.0                      131.6055                  34.0147                   50.5964                   116.559                   6.3246                    117.3882                  58.1893                   97.2008                   43.9318                   13.0                      43.0116                   58.1378                   8.544                     114.2147                  99999.0                   4.1231                    84.2912                   127.1377                  112.4856                  48.0208                   94.1116                   16.1555                   87.2067                   37.2156                   5.3852                    131.2402                  27.6586                   85.0412                   117.8346                  33.0151                   8.6023                    
41                        95.901                    30.2655                   1.0                       121.0826                  85.5628                   51.2445                   96.2133                   14.0357                   6.0828                    111.8034                  20.8806                   59.0339                   102.3963                  24.7588                   109.3846                  94.0479                   75.452                    28.8617                   93.4345                   128.0625                  44.1022                   19.0                      79.2591                   92.6499                   32.0156                   127.4873                  30.0                      48.5077                   112.7874                  5.3852                    113.8991                  56.0446                   93.4077                   42.2966                   8.9443                    39.0512                   59.1692                   4.4721                    110.5351                  4.1231                    99999.0                   80.6598                   123.7134                  109.0413                  46.9574                   90.5207                   12.083                    83.8689                   33.3766                   7.2111                    127.4245                  24.0416                   81.3941                   113.9912                  29.0689                   11.7047                   
42                        81.8596                   65.7419                   79.9812                   40.4599                   6.0828                    64.1249                   17.4642                   70.2922                   75.6637                   31.1448                   72.4017                   57.1402                   77.1038                   85.8662                   49.0408                   13.8924                   17.4642                   69.3181                   12.8062                   48.0208                   59.9083                   68.0074                   24.4131                   83.006                    62.1691                   65.521                    62.1772                   47.676                    91.2634                   78.8733                   33.8378                   44.0114                   15.1327                   55.5428                   72.1249                   60.407                    89.0898                   76.3806                   30.0                      84.2912                   80.6598                   99999.0                   113.3711                  29.5296                   104.1777                  10.0                      69.3109                   11.6619                   65.3911                   82.6196                   99.8248                   56.6392                   1.0                       88.4081                   64.4127                   86.6083                   
43                        32.5576                   94.4299                   124.0645                  126.6965                  118.1186                  153.2221                  109.5628                  111.0856                  118.4736                  123.7619                  102.8834                  152.9706                  36.7696                   146.8196                  161.9012                  120.8305                  127.8828                  95.0789                   115.9526                  124.0363                  82.365                    106.1037                  135.9154                  33.4215                   93.9149                   80.2247                   96.1509                   137.5354                  23.5372                   127.3892                  131.6055                  140.0357                  108.462                   139.807                   117.7837                  87.2353                   173.6433                  120.7021                  120.6027                  127.1377                  123.7134                  113.3711                  99999.0                   131.244                   95.0053                   117.6308                  115.4513                  125.032                   91.2853                   130.7402                  26.0                      115.7627                  112.8716                  28.1603                   96.1769                   135.4179                  
44                        102.1812                  95.2575                   108.3005                  17.0                      23.8537                   83.5703                   22.2036                   99.4032                   104.3504                  10.2956                   101.8725                  74.3303                   94.5569                   111.252                   36.8917                   15.6525                   35.5106                   98.8383                   18.4391                   27.0185                   88.8651                   97.3499                   36.0555                   104.3935                  91.6788                   65.8559                   91.7061                   69.8355                   107.912                   106.7755                  5.3852                    63.9766                   24.0208                   78.3901                   100.7671                  89.6939                   107.28                    104.8904                  12.8062                   112.4856                  109.0413                  29.5296                   131.244                   99999.0                   133.5403                  19.6977                   98.0816                   25.6125                   94.8472                   110.3177                  113.1769                  85.0412                   29.0689                   104.0                     93.9415                   113.9517                  
45                        76.5376                   39.0512                   47.8539                   141.0319                  110.1363                  96.566                    115.0043                  43.566                    45.5412                   132.8345                  36.0139                   102.7716                  87.4643                   70.7248                   144.5337                  117.9237                  106.3015                  35.6931                   115.4513                  145.3444                  45.2769                   42.0476                   112.45                    71.8401                   42.45                     128.2264                  42.9535                   89.4539                   92.6499                   52.3259                   137.3827                  96.1873                   112.2943                  85.5102                   47.8017                   43.8634                   106.066                   47.1699                   130.6484                  48.0208                   46.9574                   104.1777                  95.0053                   133.5403                  99999.0                   113.8464                  48.0521                   111.6826                  38.8973                   53.3385                   107.4895                  59.1354                   104.5466                  95.8801                   40.7922                   56.0357                   
46                        86.977                    75.591                    89.8276                   30.8058                   5.3852                    71.0211                   11.7047                   80.2808                   85.5862                   21.4009                   82.3772                   63.1269                   80.9506                   94.8947                   44.4185                   4.1231                    22.0227                   79.177                    4.0                       38.9102                   69.2604                   78.0064                   26.6833                   88.6002                   72.0069                   62.6498                   72.0694                   55.3624                   94.8947                   88.6172                   23.8537                   50.8035                   10.8167                   63.5689                   82.0366                   70.0071                   95.7549                   86.267                    20.5913                   94.1116                   90.5207                   10.0                      117.6308                  19.6977                   113.8464                  99999.0                   79.2465                   12.1655                   75.1532                   92.3147                   102.2008                  66.4831                   9.434                     91.586                    74.3034                   96.2133                   
47                        86.4002                   21.0238                   11.7047                   109.6221                  74.411                    48.7032                   84.5044                   5.0                       6.4031                    100.4092                  14.2127                   54.7449                   92.0706                   31.3847                   100.8811                  82.8794                   65.3682                   20.8087                   82.0244                   116.3873                  33.9559                   9.434                     69.857                    83.4865                   21.8403                   115.5206                  19.6469                   42.0119                   103.0776                  13.0                      102.8251                  49.163                    81.6884                   37.4833                   3.1623                    28.8617                   61.6198                   7.6158                    99.0353                   16.1555                   12.083                    69.3109                   115.4513                  98.0816                   48.0521                   79.2465                   99999.0                   73.2393                   24.1661                   17.0294                   117.4777                  13.4164                   70.0071                   103.9423                  19.3132                   22.0227                   
48                        93.4719                   72.7324                   83.0963                   40.3113                   8.0623                    59.6657                   23.7697                   74.9466                   79.404                    31.0161                   78.2943                   51.3517                   88.7525                   85.703                    37.6431                   13.1529                   10.4403                   76.2168                   16.1245                   49.3356                   68.593                    73.3553                   14.5602                   94.541                    69.2604                   74.4648                   68.9493                   44.7772                   102.9029                  81.3941                   30.8058                   39.5601                   22.4722                   53.2259                   75.8024                   68.4471                   84.1724                   79.8123                   31.0483                   87.2067                   83.8689                   11.6619                   125.032                   25.6125                   111.6826                  12.1655                   73.2393                   99999.0                   72.8011                   84.8646                   111.2879                  60.0                      12.2066                   100.0                     71.1688                   88.4138                   
49                        62.5859                   3.1623                    33.541                    103.1746                  71.3092                   67.6757                   77.1038                   19.9249                   27.6586                   94.6678                   13.0384                   71.1126                   69.1158                   55.5428                   106.3814                  79.2023                   67.7422                   5.3852                    76.9415                   108.2312                  11.1803                   14.8661                   74.2428                   59.4811                   4.1231                    98.4124                   5.831                     56.0803                   79.4292                   36.4005                   98.8383                   61.6847                   74.3303                   54.7083                   26.5707                   6.7082                    84.2912                   29.8329                   92.6499                   37.2156                   33.3766                   65.3911                   91.2853                   94.8472                   38.8973                   75.1532                   24.1661                   72.8011                   99999.0                   40.025                    94.0479                   27.2029                   65.7951                   80.6226                   5.0                       44.911                    
50                        102.6109                  36.8782                   6.7082                    123.065                   87.2067                   47.0106                   98.737                    20.2237                   12.3693                   113.7014                  27.8568                   55.5788                   108.7796                  17.6918                   108.2266                  95.6713                   75.9276                   35.7351                   95.4254                   130.4301                  50.4876                   25.318                    79.0569                   99.4585                   38.3275                   132.1855                  36.2215                   46.6154                   119.4362                  4.1231                    115.3126                  54.231                    95.9635                   39.5601                   14.0                      45.3982                   52.7731                   10.198                    112.6144                  5.3852                    7.2111                    82.6196                   130.7402                  110.3177                  53.3385                   92.3147                   17.0294                   84.8646                   40.025                    99999.0                   133.9888                  26.4197                   83.4086                   120.5073                  35.5106                   5.0                       
51                        32.0                      97.1648                   127.5774                  106.2826                  103.7111                  148.5295                  92.6499                   113.7717                  121.6553                  104.6948                  106.7942                  146.4923                  26.0                      148.4318                  146.4787                  104.8618                  115.9741                  98.732                    99.8649                   102.3572                  83.5464                   108.6738                  123.7457                  36.1248                   95.7079                   56.1427                   97.8621                   131.727                   15.0333                   130.2306                  112.7298                  132.8533                  92.0869                   135.5065                  120.2206                  88.6454                   170.9854                  123.7942                  101.5529                  131.2402                  127.4245                  99.8248                   26.0                      113.1769                  107.4895                  102.2008                  117.4777                  111.2879                  94.0479                   133.9888                  99999.0                   114.7911                  99.1564                   13.6015                   98.4784                   138.9172                  
52                        85.0                      24.6982                   23.3452                   97.0824                   61.5224                   40.4969                   72.4224                   16.2788                   19.4165                   87.7838                   23.1948                   44.5982                   88.8876                   35.0                      87.6413                   70.0071                   51.9711                   26.4008                   69.4262                   104.2017                  33.6006                   17.1172                   56.4624                   82.7647                   23.4307                   106.8878                  21.4009                   30.4138                   101.0198                  22.4722                   89.8721                   37.054                    69.6348                   27.7308                   15.8114                   29.0689                   58.0086                   19.8494                   86.5563                   27.6586                   24.0416                   56.6392                   115.7627                  85.0412                   59.1354                   66.4831                   13.4164                   60.0                      27.2029                   26.4197                   114.7911                  99999.0                   57.3847                   101.1929                  22.4722                   30.8707                   
53                        81.4371                   66.1891                   80.7217                   39.6989                   6.0                       65.123                    16.4924                   70.9366                   76.3675                   30.4138                   72.9452                   58.1378                   76.5506                   86.764                    49.3964                   13.4164                   18.3848                   69.7711                   12.0416                   47.1699                   60.1664                   68.6003                   25.2389                   82.6378                   62.6099                   64.56                     62.6498                   48.6621                   90.6973                   79.6492                   33.2866                   45.0111                   14.1421                   56.5155                   72.8354                   60.7454                   90.0888                   77.1038                   29.2062                   85.0412                   81.3941                   1.0                       112.8716                  29.0689                   104.5466                  9.434                     70.0071                   12.2066                   65.7951                   83.4086                   99.1564                   57.3847                   99999.0                   87.8009                   64.8845                   87.4185                   
54                        19.4165                   83.7257                   114.1271                  98.7168                   92.6553                   135.2036                  82.7345                   100.2846                  108.1896                  96.1353                   93.4345                   133.4054                  12.53                     134.8518                  136.0037                  94.5145                   104.0625                  85.3756                   89.5545                   95.8853                   70.0357                   95.1893                   111.9464                  24.0416                   82.201                    52.7731                   84.3445                   118.5116                  5.3852                    116.7262                  104.0625                  119.8541                  81.8841                   122.1188                  106.7052                  75.1332                   157.496                   110.3177                  92.9731                   117.8346                  113.9912                  88.4081                   28.1603                   104.0                     95.8801                   91.586                    103.9423                  100.0                     80.6226                   120.5073                  13.6015                   101.1929                  87.8009                   99999.0                   85.0                      125.4472                  
55                        67.1863                   2.2361                    29.1548                   103.0049                  70.214                    62.9682                   77.0065                   15.2971                   23.1948                   94.3027                   9.8489                    66.7083                   73.3348                   50.6952                   103.8171                  78.2943                   65.5134                   5.099                     76.3217                   108.4666                  15.0333                   10.198                    71.7008                   64.195                    3.1623                    100.8464                  2.2361                    51.8652                   83.9524                   31.7805                   98.1122                   57.7235                   74.2024                   50.1199                   21.8403                   10.0                      79.3095                   25.318                    92.4175                   33.0151                   29.0689                   64.4127                   96.1769                   93.9415                   40.7922                   74.3034                   19.3132                   71.1688                   5.0                       35.5106                   98.4784                   22.4722                   64.8845                   85.0                      99999.0                   40.4475                   
56                        107.4895                  41.7732                   11.4018                   127.0039                  91.0494                   47.3814                   102.9272                  25.1794                   17.2627                   117.6138                  32.573                    56.5155                   113.7453                  14.7648                   110.5351                  99.4887                   79.2465                   40.5216                   99.4032                   134.5251                  55.4437                   30.2655                   82.0061                   104.2929                  43.2897                   137.0328                  41.1947                   48.7647                   124.3382                  9.0554                    119.0042                  56.356                    100.1699                  41.2311                   19.0                      50.3587                   50.6952                   15.1327                   116.6062                  8.6023                    11.7047                   86.6083                   135.4179                  113.9517                  56.0357                   96.2133                   22.0227                   88.4138                   44.911                    5.0                       138.9172                  30.8707                   87.4185                   125.4472                  40.4475                   99999.0                   
;
SCALAR TOTAL  /56/;
SCALAR NODES  /50/;
SCALAR W  /2/;
SCALAR Y  /112/;
SCALAR M  /1/;
BINARY VARIABLE X(I,J,K)  x variable ;
INTEGER VARIABLE U(K,O)    u variable ;
VARIABLE   Z         objective ;
EQUATIONS
CON1(K)   constraint 1
CON2(K)   constraint 2
CON3   constraint 3
CON4(O)   constraint 4
CON5(O,K)   constraint 5
CON6(O,K)   constraint 6
CON7(K)   constraint 7
CON10(O,P,K)   constraint 10
CON11(O,K)   constraint 11;
CON1(K).. SUM(O,X(K,O,K)) =E= 1;
CON2(K).. SUM(O,X(O,K,K)) =E= 1;
CON3..  SUM((K,L),X(K,L,K)) =E= 0;
CON4(O) .. SUM(K,X(K,O,K)) + SUM((P,K),X(P,O,K)) =e= W;
CON5(O,K) .. X(K,O,K) + SUM(P,X(P,O,K)) =L= 1;
CON6(O,K) .. X(K,O,K) + SUM(P,X(P,O,K)) - X(O,K,K) - SUM(P,X(O,P,K)) =e= 0;
CON7(K) .. Z =G= SUM(O,C(K,O)*X(K,O,K) + C(O,K)*X(O,K,K)) + SUM((P,O),C(P,O)*X(P,O,K));
CON10(O,P,K) .. U(K,O) - U(K,P) + (TOTAL-1)*X(O,P,K) + (TOTAL-3)*X(P,O,K) =L= (TOTAL-2);
CON11(O,K) .. X(O,O,K) =e= 0;
MODEL TRANSPORT /ALL/;
Option Reslim = 28800;
SOLVE TRANSPORT USING MIP MINIMIZING Z ;
