SET
I  first /1*66/
K(I)  depot1 /1*6/
O(I)  node1 /7*66/
alias(I,J);
alias(K,L);
alias(O,P);
TABLE C(I,J)  node to node
                          1                         2                         3                         4                         5                         6                         7                         8                         9                         10                        11                        12                        13                        14                        15                        16                        17                        18                        19                        20                        21                        22                        23                        24                        25                        26                        27                        28                        29                        30                        31                        32                        33                        34                        35                        36                        37                        38                        39                        40                        41                        42                        43                        44                        45                        46                        47                        48                        49                        50                        51                        52                        53                        54                        55                        56                        57                        58                        59                        60                        61                        62                        63                        64                        65                        66                        
1                         99999.0                   99999.0                   99999.0                   99999.0                   99999.0                   99999.0                   103.2763                  85.703                    81.0432                   140.0071                  100.896                   58.2409                   63.5689                   97.1648                   69.1158                   65.1153                   71.1969                   91.1811                   120.0708                  89.2693                   15.1327                   120.669                   43.0116                   97.5295                   94.541                    67.72                     103.0049                  88.2836                   107.4151                  69.3181                   86.1452                   100.2247                  76.922                    105.385                   106.1508                  26.0768                   141.0319                  17.8885                   109.4029                  102.489                   110.8197                  71.8679                   109.3435                  86.2786                   82.28                     90.9725                   40.3113                   106.099                   84.8999                   102.1812                  90.0278                   101.5332                  132.9699                  84.7231                   12.0                      18.1108                   19.799                    110.0636                  108.1157                  124.3543                  90.1388                   106.099                   94.5939                   30.1496                   124.2779                  104.0192                  
2                         99999.0                   99999.0                   99999.0                   99999.0                   99999.0                   99999.0                   57.0701                   20.0998                   75.7166                   91.0                      50.9608                   8.0623                    7.2111                    32.0                      19.6469                   3.0                       6.3246                    76.5572                   114.5426                  23.5372                   72.4983                   133.6862                  25.2389                   50.8035                   29.0689                   4.1231                    41.4367                   23.0                      53.2259                   16.1245                   21.0238                   34.5254                   73.0068                   105.4751                  58.6941                   40.1622                   79.9812                   48.5077                   55.4617                   114.2147                  45.2769                   41.1096                   58.5235                   45.0444                   71.1969                   62.5859                   37.3363                   40.4475                   19.3132                   95.2575                   24.3311                   51.923                    72.1388                   61.6847                   77.4661                   83.7437                   57.8014                   95.1893                   45.1221                   95.1893                   77.8203                   40.4475                   28.8617                   38.4708                   67.6757                   52.2015                   
3                         99999.0                   99999.0                   99999.0                   99999.0                   99999.0                   99999.0                   54.4243                   10.4403                   92.4554                   79.1581                   46.8188                   38.2099                   34.0147                   5.3852                    34.6554                   31.0483                   25.0                      89.1403                   126.0357                  7.0                       102.1812                  150.9868                  54.4243                   46.0                      3.1623                    29.0172                   21.0238                   8.6023                    43.566                    33.8378                   10.8167                   4.1231                    90.802                    120.2082                  54.4059                   70.342                    56.9386                   78.9177                   45.3982                   132.4387                  15.0                      53.3385                   50.9902                   51.225                    86.4523                   71.218                    65.4905                   10.0499                   12.1655                   108.3005                  6.0828                    47.7598                   50.0899                   73.5527                   107.8703                  114.1403                  86.9253                   104.6231                  20.5183                   96.933                    91.2195                   10.0499                   2.8284                    68.0074                   51.6236                   45.607                    
4                         99999.0                   99999.0                   99999.0                   99999.0                   99999.0                   99999.0                   76.6942                   115.2779                  28.4253                   95.0053                   82.2922                   98.7927                   96.8349                   125.2557                  122.6418                  106.5082                  109.2016                  32.6497                   22.4722                   115.2779                  115.1564                  30.6105                   106.4049                  154.8419                  121.6963                  101.4002                  140.0071                  118.8024                  90.8735                   90.1388                   118.1397                  122.7884                  31.0644                   7.0711                    79.1202                   100.439                   122.9715                  92.7793                   91.0                      14.1421                   132.0038                  140.8723                  85.44                     70.4557                   33.9706                   51.8845                   76.2168                   127.4402                  110.3087                  17.0                      116.6919                  81.8596                   117.3414                  47.4342                   101.2719                  104.3456                  114.4378                  29.4279                   140.8581                  54.9181                   30.0167                   127.4402                  117.5925                  106.2309                  102.2008                  85.9069                   
5                         99999.0                   99999.0                   99999.0                   99999.0                   99999.0                   99999.0                   41.9762                   80.4301                   12.1655                   67.72                     46.8188                   67.6757                   64.4748                   89.8276                   91.0                      74.3236                   76.0592                   5.099                     42.9535                   80.0562                   101.5923                  66.6108                   79.511                    121.8031                  86.3134                   68.4251                   104.8904                  83.8689                   55.6597                   56.4358                   83.4086                   87.046                    14.3178                   35.3553                   44.7214                   78.4092                   89.6772                   74.2159                   56.0446                   49.1935                   96.0469                   111.018                   50.9902                   34.4093                   5.831                     16.4924                   52.2398                   91.5478                   75.2861                   23.8537                   81.4678                   46.4866                   83.3607                   11.4018                   92.2822                   97.0979                   96.1041                   25.02                     105.3613                  38.4187                   6.4031                    91.5478                   82.0244                   83.0963                   68.593                    50.5964                   
6                         99999.0                   99999.0                   99999.0                   99999.0                   99999.0                   99999.0                   24.0208                   55.0818                   77.4145                   29.0                      21.8403                   69.029                    62.6259                   55.0818                   79.8499                   67.7422                   63.9531                   67.6831                   96.3846                   51.4198                   132.0076                  128.6934                  88.8651                   96.1301                   53.3385                   61.2944                   69.1158                   56.2939                   13.8924                   53.7587                   57.7235                   49.0102                   78.1025                   96.566                    21.095                    99.7647                   24.0208                   103.6002                  12.083                    113.6002                  50.9902                   101.1929                  15.0                      38.3275                   70.3491                   49.366                    81.6333                   49.2544                   50.9215                   83.5703                   52.1728                   21.587                    17.72                     56.0803                   131.2288                  137.379                   119.5031                  74.7061                   65.6201                   57.28                     70.6116                   49.2544                   48.5077                   100.449                   3.1623                    18.0278                   
7                         103.2763                  57.0701                   54.4243                   76.6942                   41.9762                   24.0208                   99999.0                   54.7449                   53.4603                   36.8782                   7.6158                    58.1893                   52.2015                   59.808                    75.2396                   60.0167                   58.2151                   44.2719                   76.0592                   52.3927                   115.434                   106.4378                  76.9675                   98.8433                   56.921                    52.9528                   75.3923                   57.2713                   14.4222                   42.0595                   57.8705                   55.0364                   54.0833                   74.2428                   3.1623                    84.6286                   48.0416                   86.3134                   14.3178                   90.4765                   61.2944                   97.3293                   9.0554                    17.0294                   46.3897                   25.4951                   62.9682                   57.8014                   49.4975                   61.2944                   53.6004                   6.7082                    41.4367                   32.0624                   112.2943                  118.2286                  104.6231                  54.037                    73.7902                   42.5441                   47.1275                   57.8014                   51.8652                   86.6083                   27.0                      9.8995                    
8                         85.703                    20.0998                   10.4403                   115.2779                  80.4301                   55.0818                   54.7449                   99999.0                   86.977                    83.3607                   47.3814                   28.0179                   24.3311                   12.1655                   25.807                    20.6155                   14.5602                   85.0                      122.5887                  4.2426                    91.7606                   145.6709                  44.0114                   44.1475                   9.0                       19.105                    24.8395                   3.6056                    46.0977                   26.0768                   3.1623                    14.5602                   84.9588                   115.6244                  55.3263                   59.9083                   65.0                      68.593                    48.1664                   126.732                   25.1794                   46.2385                   53.0                      48.3011                   81.3941                   68.0955                   56.0892                   20.3961                   5.3852                    104.2017                  4.4721                    48.3735                   57.6888                   69.4046                   97.4936                   103.7545                  76.5572                   101.7104                  26.8328                   96.566                    86.8332                   20.3961                   9.434                     57.5847                   56.921                    47.0425                   
9                         81.0432                   75.7166                   92.4554                   28.4253                   12.1655                   77.4145                   53.4603                   86.977                    99999.0                   79.8123                   57.7235                   70.7107                   68.5055                   97.1854                   94.5145                   78.2304                   80.8022                   13.0384                   41.4367                   87.1149                   96.0469                   58.6941                   79.8123                   126.4911                  93.6056                   73.0068                   111.7587                  90.5207                   66.7083                   61.7171                   89.8053                   95.0                      4.1231                    29.9666                   56.3205                   76.1052                   101.4002                  70.2567                   67.2681                   40.0                      104.561                   113.3181                  62.514                    43.8634                   7.0711                    28.0713                   50.4876                   99.8649                   82.0731                   22.0227                   88.5268                   57.4891                   94.8947                   21.587                    85.0882                   89.4427                   92.3472                   29.1548                   112.8051                  48.1664                   10.6301                   99.8649                   89.6437                   81.3941                   80.3057                   61.6117                   
10                        140.0071                  91.0                      79.1581                   95.0053                   67.72                     29.0                      36.8782                   83.3607                   79.8123                   99999.0                   40.8167                   93.4773                   87.2067                   84.0536                   107.28                    93.7763                   90.7579                   67.4685                   85.3756                   79.9062                   152.3056                  120.669                   112.8716                  125.1                     82.2192                   86.9253                   98.0816                   84.8528                   37.9473                   77.4145                   86.1452                   78.0064                   81.9085                   90.1998                   34.2053                   121.4002                  38.4187                   123.1666                  35.7351                   109.0413                  79.6304                   129.031                   32.6497                   53.7587                   73.3757                   54.1295                   99.7046                   78.1601                   78.8543                   78.0064                   80.7527                   39.9625                   38.0132                   61.7414                   148.7347                  154.5639                  141.4001                  66.2722                   94.4299                   42.45                     70.406                    78.1601                   77.3175                   123.1463                  28.1603                   38.9102                   
11                        100.896                   50.9608                   46.8188                   82.2922                   46.8188                   21.8403                   7.6158                    47.3814                   57.7235                   40.8167                   99999.0                   52.8015                   46.6154                   52.2015                   68.593                    53.8516                   51.6236                   49.6588                   82.8794                   44.911                    112.4322                  112.3788                  72.0694                   91.4112                   49.3356                   46.8402                   67.7791                   49.8197                   9.0554                    36.6742                   50.4876                   47.4236                   57.8705                   80.2621                   8.0                       80.9197                   45.2769                   83.5464                   10.0499                   95.8541                   53.8238                   90.6697                   8.4853                    16.4924                   50.6952                   30.4631                   60.803                    50.2494                   42.19                     67.4166                   46.0977                   1.0                       38.0132                   36.1386                   110.4355                  116.4989                  100.896                   60.8769                   66.1891                   50.1597                   52.3927                   50.2494                   44.2719                   82.4197                   25.0                      4.0                       
12                        58.2409                   8.0623                    38.2099                   98.7927                   67.6757                   69.029                    58.1893                   28.0179                   70.7107                   93.4773                   52.8015                   99999.0                   6.4031                    40.0125                   23.8537                   8.9443                    14.3178                   72.7324                   110.4943                  31.257                    65.7647                   128.0039                  19.8494                   56.6392                   37.0135                   9.4868                    49.3356                   31.0161                   56.3028                   16.1555                   29.0689                   42.2966                   67.7422                   100.6479                  60.1664                   33.1059                   85.4283                   40.7922                   58.5235                   108.4066                  53.1507                   43.4166                   60.8276                   44.4072                   66.7083                   60.2993                   29.5466                   48.2597                   26.6833                   91.0                      32.1403                   53.7122                   77.4661                   58.4637                   69.857                    76.1577                   51.614                    91.9239                   53.1507                   94.0213                   73.736                    48.2597                   36.4966                   32.2025                   71.7008                   54.5894                   
13                        63.5689                   7.2111                    34.0147                   96.8349                   64.4748                   62.6259                   52.2015                   24.3311                   68.5055                   87.2067                   46.6154                   6.4031                    99999.0                   36.4966                   26.5707                   9.8489                    12.8062                   69.4622                   107.4244                  27.0185                   71.6938                   126.5069                  26.2488                   58.0086                   33.2415                   5.3852                    47.4236                   27.6586                   49.93                     10.198                    25.9615                   38.0                      65.8027                   98.27                     54.0833                   38.9487                   79.2023                   45.8803                   52.1536                   107.0561                  49.0102                   47.5184                   54.5619                   39.0512                   64.0078                   55.9017                   31.7805                   44.0                      22.0227                   88.1022                   28.0713                   47.5395                   71.218                    54.7083                   75.0                      81.3204                   57.8014                   88.2326                   50.5964                   89.0225                   70.6824                   44.0                      32.0156                   38.4187                   65.2993                   48.3011                   
14                        97.1648                   32.0                      5.3852                    125.2557                  89.8276                   55.0818                   59.808                    12.1655                   97.1854                   84.0536                   52.2015                   40.0125                   36.4966                   99999.0                   33.0151                   32.1403                   26.0768                   94.1754                   131.2098                  10.2956                   102.489                   155.7947                  54.8179                   41.0488                   3.6056                    31.257                    15.6525                   9.0                       48.8365                   37.5766                   11.0454                   6.3246                    95.4254                   125.1759                  59.7746                   71.1969                   60.3738                   80.3057                   50.636                    137.1313                  13.9284                   50.2195                   56.2939                   56.4004                   91.2853                   76.4003                   68.2495                   10.0                      15.6525                   113.3578                  8.9443                    53.1413                   53.8516                   78.5684                   109.0367                  115.2606                  86.977                    109.859                   15.6205                   102.3181                  96.2081                   10.0                      8.0623                    68.4105                   56.3205                   50.9608                   
15                        69.1158                   19.6469                   34.6554                   122.6418                  91.0                      79.8499                   75.2396                   25.807                    94.5145                   107.28                    68.593                    23.8537                   26.5707                   33.0151                   99999.0                   16.7631                   17.0294                   96.0052                   133.9328                  30.0                      71.8471                   151.8223                  26.4764                   33.3017                   31.8904                   23.3452                   34.3657                   26.1725                   69.3758                   35.6931                   24.0832                   38.2884                   91.586                    124.4227                  76.531                    43.4166                   90.802                    54.3415                   71.5681                   132.2006                  46.6476                   22.0907                   75.505                    64.3817                   90.3383                   82.2253                   51.225                    43.0116                   29.0689                   114.5426                  29.8329                   69.5845                   83.4865                   81.2712                   81.0987                   87.023                    55.9017                   114.7911                  40.025                    114.5295                  97.17                     43.0116                   34.7131                   39.0128                   81.939                    69.2315                   
16                        65.1153                   3.0                       31.0483                   106.5082                  74.3236                   67.7422                   60.0167                   20.6155                   78.2304                   93.7763                   53.8516                   8.9443                    9.8489                    32.1403                   16.7631                   99999.0                   6.0828                    79.3095                   117.2732                  24.3516                   71.3092                   136.0331                  23.7065                   48.4149                   29.4279                   7.0711                    40.5216                   23.1948                   55.9464                   19.105                    21.095                    35.171                    75.452                    108.0463                  61.6117                   39.2938                   82.0366                   48.1664                   58.1808                   116.5161                  45.7056                   38.1182                   61.3514                   48.0416                   73.8241                   65.5134                   38.4838                   41.0                      20.5913                   97.9439                   25.0                      54.8179                   74.2496                   64.5136                   76.9415                   83.1865                   56.356                    98.0306                   44.5533                   98.1835                   80.5295                   41.0                      29.7321                   37.1618                   70.1783                   55.0273                   
17                        71.1969                   6.3246                    25.0                      109.2016                  76.0592                   63.9531                   58.2151                   14.5602                   80.8022                   90.7579                   51.6236                   14.3178                   12.8062                   26.0768                   17.0294                   6.0828                    99999.0                   80.9506                   118.9622                  18.3848                   77.2528                   139.0539                  29.5466                   45.793                    23.3452                   7.8102                    35.1141                   17.1172                   52.811                    19.6977                   15.0333                   29.1204                   78.2432                   110.3857                  59.5399                   45.3542                   77.1038                   54.231                    55.0273                   119.6704                  39.6232                   39.1152                   58.6941                   47.676                    76.0066                   66.0984                   43.6578                   34.9285                   15.0                      99.8499                   18.9737                   52.6118                   69.4262                   65.7951                   83.0241                   89.2693                   62.1691                   99.1615                   38.833                    97.7394                   82.365                    34.9285                   23.7697                   43.0813                   66.242                    52.3927                   
18                        91.1811                   76.5572                   89.1403                   32.6497                   5.099                     67.6831                   44.2719                   85.0                      13.0384                   67.4685                   49.6588                   72.7324                   69.4622                   94.1754                   96.0052                   79.3095                   80.9506                   99999.0                   38.0132                   84.5044                   105.9481                  62.9682                   84.5931                   126.657                   90.6863                   73.3485                   109.3435                  88.4081                   58.3095                   61.2944                   88.0057                   91.2195                   16.2788                   31.241                    46.8402                   83.2947                   91.4112                   78.8543                   58.5235                   46.2385                   100.005                   116.0905                  53.1601                   38.2884                   8.9443                    19.2354                   57.1402                   95.5877                   79.8123                   19.2094                   85.9127                   49.2443                   85.3756                   15.6205                   96.1769                   100.8464                  100.8067                  20.0                      109.6586                  35.3553                   3.0                       95.5877                   86.3134                   88.0511                   70.406                    53.3104                   
19                        120.0708                  114.5426                  126.0357                  22.4722                   42.9535                   96.3846                   76.0592                   122.5887                  41.4367                   85.3756                   82.8794                   110.4943                  107.4244                  131.2098                  133.9328                  117.2732                  118.9622                  38.0132                   99999.0                   121.8277                  135.2036                  36.0                      121.0496                  164.6481                  127.8006                  111.3598                  146.6049                  125.9246                  90.4268                   99.2975                   125.6423                  127.7811                  45.2769                   15.6525                   77.801                    117.4266                  118.1059                  111.0                     90.0                      31.0644                   135.8308                  153.7075                  83.8153                   74.8131                   43.9659                   54.8179                   91.9239                   131.7118                  117.3243                  19.6469                   123.2234                  82.2192                   113.6486                  53.3385                   122.2497                  125.6861                  133.015                   22.0227                   146.4923                  42.9535                   36.7696                   131.7118                  123.2274                  122.8007                  98.4886                   85.9127                   
20                        89.2693                   23.5372                   7.0                       115.2779                  80.0562                   51.4198                   52.3927                   4.2426                    87.1149                   79.9062                   44.911                    31.257                    27.0185                   10.2956                   30.0                      24.3516                   18.3848                   84.5044                   121.8277                  99999.0                   95.6347                   145.7738                  47.927                    46.5296                   6.7082                    22.0227                   24.8395                   5.0                       43.0                      27.313                    6.3246                    11.0454                   85.276                    115.3646                  52.7731                   63.6003                   60.803                    72.0069                   45.0111                   127.0157                  22.0                      50.1597                   50.0899                   47.1699                   81.3204                   67.1193                   58.5491                   17.0294                   5.3852                    103.7111                  1.4142                    45.8912                   53.535                    68.884                    101.0                     107.28                    80.5295                   100.7025                  25.807                    94.5569                   86.4523                   17.0294                   5.3852                    61.4654                   53.1601                   44.2832                   
21                        15.1327                   72.4983                   102.1812                  115.1564                  101.5923                  132.0076                  115.434                   91.7606                   96.0469                   152.3056                  112.4322                  65.7647                   71.6938                   102.489                   71.8471                   71.3092                   77.2528                   105.9481                  135.2036                  95.6347                   99999.0                   135.2036                  47.7598                   96.6282                   100.2447                  75.1332                   106.2121                  93.9202                   118.3427                  78.8162                   91.7061                   106.2826                  91.9239                   120.5031                  118.1905                  32.7567                   150.6021                  29.2062                   120.4159                  117.2732                  116.3873                  69.8713                   120.9173                  98.5951                   97.0824                   104.8094                  53.0094                   111.9464                  91.7878                   117.2774                  96.2081                   113.1371                  142.5623                  98.8383                   18.0278                   20.6155                   16.0312                   125.0                     111.8034                  138.6542                  104.9952                  111.9464                  101.0198                  34.176                    134.9518                  115.3126                  
22                        120.669                   133.6862                  150.9868                  30.6105                   66.6108                   128.6934                  106.4378                  145.6709                  58.6941                   120.669                   112.3788                  128.0039                  126.5069                  155.7947                  151.8223                  136.0331                  139.0539                  62.9682                   36.0                      145.7738                  135.2036                  99999.0                   133.7647                  184.4478                  152.2268                  131.244                   170.4494                  149.2146                  120.7684                  120.283                   148.4924                  153.3884                  60.8769                   32.2025                   108.6876                  125.7179                  151.4893                  116.6919                  120.7477                  19.7231                   162.61                    169.0976                  114.9652                  101.0198                  64.5368                   82.1523                   103.3538                  158.0506                  140.7587                  45.1885                   147.187                   111.8928                  146.3284                  78.0064                   119.2686                  121.0165                  137.2771                  54.8179                   171.406                   78.5175                   60.4649                   158.0506                  148.1654                  131.8484                  131.103                   115.8836                  
23                        43.0116                   25.2389                   54.4243                   106.4049                  79.511                    88.8651                   76.9675                   44.0114                   79.8123                   112.8716                  72.0694                   19.8494                   26.2488                   54.8179                   26.4764                   23.7065                   29.5466                   84.5931                   121.0496                  47.927                    47.7598                   133.7647                  99999.0                   57.7062                   52.4976                   28.4253                   60.0                      46.1736                   76.0263                   35.5106                   43.9659                   58.5235                   76.243                    109.4166                  79.1581                   17.0294                   104.9952                  27.8927                   78.2368                   114.0614                  68.6804                   36.1248                   80.2621                   61.9839                   77.2787                   75.326                    30.4138                   64.195                    44.2945                   101.415                   48.4665                   72.9452                   97.0824                   72.0                      55.0091                   61.0737                   32.6497                   104.4797                  65.123                    110.0273                  85.0                      64.195                    53.3104                   13.6015                   91.5478                   74.0945                   
24                        97.5295                   50.8035                   46.0                      154.8419                  121.8031                  96.1301                   98.8433                   44.1475                   126.4911                  125.1                     91.4112                   56.6392                   58.0086                   41.0488                   33.3017                   48.4149                   45.793                    126.657                   164.6481                  46.5296                   96.6282                   184.4478                  57.7062                   99999.0                   43.0116                   53.535                    28.4605                   41.5933                   89.2749                   65.3682                   41.0                      47.1699                   123.8103                  156.1602                  99.2975                   73.5391                   99.3277                   85.0882                   91.1976                   164.9242                  48.3839                   27.0                      96.5194                   91.7606                   121.7949                  111.0856                  84.5044                   48.0521                   49.4773                   145.6194                  45.3982                   92.3959                   93.6216                   111.3643                  109.1421                  114.5426                  80.895                    144.5061                  34.0147                   140.684                   128.1288                  48.0521                   48.0416                   68.0074                   97.3293                   90.7965                   
25                        94.541                    29.0689                   3.1623                    121.6963                  86.3134                   53.3385                   56.921                    9.0                       93.6056                   82.2192                   49.3356                   37.0135                   33.2415                   3.6056                    31.8904                   29.4279                   23.3452                   90.6863                   127.8006                  6.7082                    100.2447                  152.2268                  52.4976                   43.0116                   99999.0                   28.0713                   18.868                    6.3246                    46.3897                   34.0147                   8.544                     6.4031                    91.8314                   121.6553                  57.0088                   68.6586                   60.0333                   77.5242                   48.2597                   133.544                   16.2788                   50.2494                   53.7587                   53.0094                   87.7268                   73.0068                   64.9384                   11.7047                   12.083                    109.8772                  5.3852                    50.2892                   53.2259                   75.0733                   106.3673                  112.6144                  84.8646                   106.5082                  19.2094                   99.368                    92.6984                   11.7047                   5.099                     66.0984                   54.7449                   48.2701                   
26                        67.72                     4.1231                    29.0172                   101.4002                  68.4251                   61.2944                   52.9528                   19.105                    73.0068                   86.9253                   46.8402                   9.4868                    5.3852                    31.257                    23.3452                   7.0711                    7.8102                    73.3485                   111.3598                  22.0227                   75.1332                   131.244                   28.4253                   53.535                    28.0713                   99999.0                   42.0476                   22.3607                   49.1935                   12.3693                   20.6155                   33.0606                   70.4344                   102.6255                  54.5711                   42.5441                   76.5768                   50.2195                   51.4296                   111.866                   44.0114                   45.0444                   54.4243                   41.1096                   68.2642                   58.9406                   37.108                    39.0512                   17.2627                   92.1792                   23.0                      47.8017                   68.6804                   58.3095                   79.3095                   85.6154                   60.7454                   91.7606                   45.2217                   91.2688                   74.7061                   39.0512                   27.1662                   41.3401                   63.8201                   48.1041                   
27                        103.0049                  41.4367                   21.0238                   140.0071                  104.8904                  69.1158                   75.3923                   24.8395                   111.7587                  98.0816                   67.7791                   49.3356                   47.4236                   15.6525                   34.3657                   40.5216                   35.1141                   109.3435                  146.6049                  24.8395                   106.2121                  170.4494                  60.0                      28.4605                   18.868                    42.0476                   99999.0                   21.2603                   64.0312                   50.8035                   22.2036                   20.6155                   109.7862                  140.1856                  75.2728                   77.0065                   70.8802                   87.2812                   65.7343                   151.5586                  19.9249                   45.0                      71.5681                   71.8471                   106.0754                  91.8368                   78.7718                   20.025                    29.6985                   128.5496                  23.4307                   68.7095                   65.307                    93.723                    115.0043                  121.0372                  90.2552                   125.3635                  6.4031                    117.9237                  111.2879                  20.025                    23.7065                   73.1095                   70.0071                   66.4078                   
28                        88.2836                   23.0                      8.6023                    118.8024                  83.8689                   56.2939                   57.2713                   3.6056                    90.5207                   84.8528                   49.8197                   31.0161                   27.6586                   9.0                       26.1725                   23.1948                   17.1172                   88.4081                   125.9246                  5.0                       93.9202                   149.2146                  46.1736                   41.5933                   6.3246                    22.3607                   21.2603                   99999.0                   48.0                      29.6816                   2.2361                    12.53                     88.5268                   119.0966                  57.7062                   62.3699                   64.8999                   71.3442                   50.01                     130.2997                  22.561                    45.618                    55.0818                   51.4782                   84.8999                   71.3442                   59.439                    18.0278                   8.6023                    107.6151                  4.1231                    50.8035                   57.8014                   72.8011                   100.1299                  106.3673                  78.5493                   104.9571                  23.2594                   99.3277                   90.2718                   18.0278                   8.6023                    59.7746                   57.9741                   49.2544                   
29                        107.4151                  53.2259                   43.566                    90.8735                   55.6597                   13.8924                   14.4222                   46.0977                   66.7083                   37.9473                   9.0554                    56.3028                   49.93                     48.8365                   69.3758                   55.9464                   52.811                    58.3095                   90.4268                   43.0                      118.3427                  120.7684                  76.0263                   89.2749                   46.3897                   49.1935                   64.0312                   48.0                      99999.0                   40.6079                   49.0408                   43.4166                   66.9104                   88.5889                   12.7279                   86.267                    36.4966                   89.8109                   2.2361                    104.5466                  48.3011                   91.2195                   7.6158                    25.1794                   59.6657                   39.2173                   67.7422                   45.31                     41.3038                   75.6637                   44.0114                   9.2195                    29.0689                   45.1221                   117.3456                  123.4909                  106.1037                  68.4105                   61.6847                   55.2268                   61.0983                   45.31                     41.3038                   87.2067                   17.0                      5.099                     
30                        69.3181                   16.1245                   33.8378                   90.1388                   56.4358                   53.7587                   42.0595                   26.0768                   61.7171                   77.4145                   36.6742                   16.1555                   10.198                    37.5766                   35.6931                   19.105                    19.6977                   61.2944                   99.2975                   27.313                    78.8162                   120.283                   35.5106                   65.3682                   34.0147                   12.3693                   50.8035                   29.6816                   40.6079                   99999.0                   28.6007                   37.3631                   59.4138                   91.022                    44.0114                   46.2277                   71.8679                   51.4296                   42.8019                   101.1187                  48.2701                   57.2189                   44.7772                   29.0                      56.6127                   46.5725                   33.1361                   43.1741                   21.9317                   80.2621                   28.6356                   37.5766                   63.8122                   46.0977                   80.2309                   86.539                    65.7951                   79.4796                   52.8394                   79.1012                   62.7694                   43.1741                   31.3209                   46.6905                   56.5685                   38.5876                   
31                        86.1452                   21.0238                   10.8167                   118.1397                  83.4086                   57.7235                   57.8705                   3.1623                    89.8053                   86.1452                   50.4876                   29.0689                   25.9615                   11.0454                   24.0832                   21.095                    15.0333                   88.0057                   125.6423                  6.3246                    91.7061                   148.4924                  43.9659                   41.0                      8.544                     20.6155                   22.2036                   2.2361                    49.0408                   28.6007                   99999.0                   14.7648                   87.7268                   118.5622                  58.4209                   60.208                    66.8506                   69.2604                   51.0882                   129.4952                  24.7386                   43.8634                   56.0089                   51.4296                   84.2912                   71.1969                   57.7235                   20.2485                   8.544                     107.2007                  5.831                     51.4782                   59.6825                   72.4224                   98.0051                   104.2353                  76.3217                   104.8094                  24.6982                   99.7246                   89.8109                   20.2485                   10.6301                   57.5674                   59.4811                   50.0899                   
32                        100.2247                  34.5254                   4.1231                    122.7884                  87.046                    49.0102                   55.0364                   14.5602                   95.0                      78.0064                   47.4236                   42.2966                   38.0                      6.3246                    38.2884                   35.171                    29.1204                   91.2195                   127.7811                  11.0454                   106.2826                  153.3884                  58.5235                   47.1699                   6.4031                    33.0606                   20.6155                   12.53                     43.4166                   37.3631                   14.7648                   99999.0                   93.4773                   122.3806                  54.7814                   74.4648                   54.1202                   83.0241                   45.1221                   135.0                     11.0454                   56.3028                   50.9608                   53.0754                   88.8651                   73.0                      69.3542                   6.0                       16.0312                   110.3177                  10.198                    48.3322                   47.5395                   75.6902                   111.9866                  118.2582                  91.0                      106.2121                  18.868                    97.5756                   93.3809                   6.0                       6.0828                    72.111                    50.1597                   45.8803                   
33                        76.922                    73.0068                   90.802                    31.0644                   14.3178                   78.1025                   54.0833                   84.9588                   4.1231                    81.9085                   57.8705                   67.7422                   65.8027                   95.4254                   91.586                    75.452                    78.2432                   16.2788                   45.2769                   85.276                    91.9239                   60.8769                   76.243                    123.8103                  91.8314                   70.4344                   109.7862                  88.5268                   66.9104                   59.4138                   87.7268                   93.4773                   99999.0                   33.2415                   57.0351                   72.1734                   102.1225                  66.1891                   67.6018                   41.7732                   103.2473                  110.0727                  63.1269                   43.3244                   8.544                     29.0689                   46.6905                   98.4784                   80.1561                   26.0                      86.6833                   57.7062                   95.4254                   22.0227                   81.0247                   85.4225                   88.278                    33.2415                   111.0405                  51.6236                   14.2127                   98.4784                   88.0057                   77.5242                   81.0555                   61.8142                   
34                        105.385                   105.4751                  120.2082                  7.0711                    35.3553                   96.566                    74.2428                   115.6244                  29.9666                   90.1998                   80.2621                   100.6479                  98.27                     125.1759                  124.4227                  108.0463                  110.3857                  31.241                    15.6525                   115.3646                  120.5031                  32.2025                   109.4166                  156.1602                  121.6553                  102.6255                  140.1856                  119.0966                  88.5889                   91.022                    118.5622                  122.3806                  33.2415                   99999.0                   76.4853                   104.3935                  119.5492                  97.2522                   88.5494                   19.2354                   131.244                   143.2655                  82.7647                   69.527                    34.4093                   50.2195                   79.555                    126.8109                  110.5351                  13.0                      116.7776                  79.7559                   114.2322                  46.6905                   107.0794                  110.354                   119.105                   24.0                      140.716                   49.2544                   29.0                      126.8109                  117.3797                  110.0227                  99.0202                   83.7257                   
35                        106.1508                  58.6941                   54.4059                   79.1202                   44.7214                   21.095                    3.1623                    55.3263                   56.3205                   34.2053                   8.0                       60.1664                   54.0833                   59.7746                   76.531                    61.6117                   59.5399                   46.8402                   77.801                    52.7731                   118.1905                  108.6876                  79.1581                   99.2975                   57.0088                   54.5711                   75.2728                   57.7062                   12.7279                   44.0114                   58.4209                   54.7814                   57.0351                   76.4853                   99999.0                   87.2009                   45.0999                   89.1067                   12.2066                   92.9731                   60.5392                   98.6154                   6.3246                    20.0                      49.2544                   28.2843                   65.8559                   57.2451                   50.1597                   63.5059                   53.9351                   7.0                       38.6394                   35.0143                   115.2562                  121.2106                  107.2007                  55.8032                   73.4098                   42.9418                   49.7293                   57.2451                   51.923                    89.0449                   24.0208                   8.9443                    
36                        26.0768                   40.1622                   70.342                    100.439                   78.4092                   99.7647                   84.6286                   59.9083                   76.1052                   121.4002                  80.9197                   33.1059                   38.9487                   71.1969                   43.4166                   39.2938                   45.3542                   83.2947                   117.4266                  63.6003                   32.7567                   125.7179                  17.0294                   73.5391                   68.6586                   42.5441                   77.0065                   62.3699                   86.267                    46.2277                   60.208                    74.4648                   72.1734                   104.3935                  87.2009                   99999.0                   117.8898                  11.6619                   88.3912                   106.2826                  84.9294                   49.6488                   89.3756                   68.2642                   75.06                     77.7946                   26.1725                   80.2808                   59.4643                   98.1275                   64.2884                   81.6884                   109.859                   73.0068                   38.0526                   44.1814                   20.0                      103.2376                  82.0549                   112.641                   83.0963                   80.2808                   68.9638                   6.4031                    102.6499                  83.5464                   
37                        141.0319                  79.9812                   56.9386                   122.9715                  89.6772                   24.0208                   48.0416                   65.0                      101.4002                  38.4187                   45.2769                   85.4283                   79.2023                   60.3738                   90.802                    82.0366                   77.1038                   91.4112                   118.1059                  60.803                    150.6021                  151.4893                  104.9952                  99.3277                   60.0333                   76.5768                   70.8802                   64.8999                   36.4966                   71.8679                   66.8506                   54.1202                   102.1225                  119.5492                  45.0999                   117.8898                  99999.0                   123.1666                  35.2278                   137.0328                  50.9608                   110.2769                  39.0128                   61.6604                   94.3398                   73.3348                   102.5524                  51.6236                   62.3699                   106.6068                  61.0328                   45.1774                   8.0623                    80.0999                   151.6113                  157.867                   137.0036                  96.933                    65.7343                   76.8505                   94.3663                   51.6236                   56.3028                   117.6138                  21.095                    41.3038                   
38                        17.8885                   48.5077                   78.9177                   92.7793                   74.2159                   103.6002                  86.3134                   68.593                    70.2567                   123.1666                  83.5464                   40.7922                   45.8803                   80.3057                   54.3415                   48.1664                   54.231                    78.8543                   111.0                     72.0069                   29.2062                   116.6919                  27.8927                   85.0882                   77.5242                   50.2195                   87.2812                   71.3442                   89.8109                   51.4296                   69.2604                   83.0241                   66.1891                   97.2522                   89.1067                   11.6619                   123.1666                  99999.0                   91.8314                   97.5295                   93.771                    61.2944                   92.0217                   69.4262                   70.214                    76.0263                   23.8537                   88.955                    67.4685                   92.1358                   72.8354                   84.22                     115.1043                  70.3847                   29.1204                   35.4401                   22.0907                   98.4784                   92.0489                   110.3087                  78.2624                   88.955                    77.2787                   17.8045                   106.6068                  86.5563                   
39                        109.4029                  55.4617                   45.3982                   91.0                      56.0446                   12.083                    14.3178                   48.1664                   67.2681                   35.7351                   10.0499                   58.5235                   52.1536                   50.636                    71.5681                   58.1808                   55.0273                   58.5235                   90.0                      45.0111                   120.4159                  120.7477                  78.2368                   91.1976                   48.2597                   51.4296                   65.7343                   50.01                     2.2361                    42.8019                   51.0882                   45.1221                   67.6018                   88.5494                   12.2066                   88.3912                   35.2278                   91.8314                   99999.0                   104.7521                  49.6588                   93.3916                   6.4031                    26.4764                   60.208                    39.5601                   69.6419                   46.8188                   43.4166                   75.591                    46.0                      10.0                      28.0                      45.7056                   119.2686                  125.3994                  108.2451                  68.0074                   63.2456                   54.0833                   61.3514                   46.8188                   43.1856                   89.3756                   15.2315                   6.0828                    
40                        102.489                   114.2147                  132.4387                  14.1421                   49.1935                   113.6002                  90.4765                   126.732                   40.0                      109.0413                  95.8541                   108.4066                  107.0561                  137.1313                  132.2006                  116.5161                  119.6704                  46.2385                   31.0644                   127.0157                  117.2732                  19.7231                   114.0614                  164.9242                  133.544                   111.866                   151.5586                  130.2997                  104.5466                  101.1187                  129.4952                  135.0                     41.7732                   19.2354                   92.9731                   106.2826                  137.0328                  97.5295                   104.7521                  99999.0                   144.5164                  149.3754                  99.2975                   83.3547                   46.3249                   65.3911                   83.6481                   139.8463                  121.918                   31.0644                   128.4251                  95.462                    131.3202                  60.4152                   102.0196                  104.3072                  118.4567                  43.1045                   152.7514                  68.469                    43.4626                   139.8463                  129.6302                  112.361                   116.211                   99.5389                   
41                        110.8197                  45.2769                   15.0                      132.0038                  96.0469                   50.9902                   61.2944                   25.1794                   104.561                   79.6304                   53.8238                   53.1507                   49.0102                   13.9284                   46.6476                   45.7056                   39.6232                   100.005                   135.8308                  22.0                      116.3873                  162.61                    68.6804                   48.3839                   16.2788                   44.0114                   19.9249                   22.561                    48.3011                   48.2701                   24.7386                   11.0454                   103.2473                  131.244                   60.5392                   84.9294                   50.9608                   93.771                    49.6588                   144.5164                  99999.0                   62.2896                   55.9017                   61.7171                   98.2293                   81.3449                   80.399                    5.099                     27.074                    118.9285                  21.0238                   54.6443                   45.5412                   84.6463                   122.6418                  128.8914                  100.9009                  114.0219                  15.0333                   103.4456                  102.3035                  5.099                     17.1172                   82.28                     51.4782                   51.6236                   
42                        71.8679                   41.1096                   53.3385                   140.8723                  111.018                   101.1929                  97.3293                   46.2385                   113.3181                  129.031                   90.6697                   43.4166                   47.5184                   50.2195                   22.0907                   38.1182                   39.1152                   116.0905                  153.7075                  50.1597                   69.8713                   169.0976                  36.1248                   27.0                      50.2494                   45.0444                   45.0                      45.618                    91.2195                   57.2189                   43.8634                   56.3028                   110.0727                  143.2655                  98.6154                   49.6488                   110.2769                  61.2944                   93.3916                   149.3754                  62.2896                   99999.0                   97.4936                   86.1452                   109.7862                  103.407                   66.0303                   59.8164                   50.2892                   134.1343                  49.6588                   91.6624                   103.3538                  101.8676                  83.1685                   88.3233                   54.3415                   135.3403                  51.4004                   136.2975                  117.0043                  59.8164                   54.1202                   43.566                    103.1213                  91.2414                   
43                        109.3435                  58.5235                   50.9902                   85.44                     50.9902                   15.0                      9.0554                    53.0                      62.514                    32.6497                   8.4853                    60.8276                   54.5619                   56.2939                   75.505                    61.3514                   58.6941                   53.1601                   83.8153                   50.0899                   120.9173                  114.9652                  80.2621                   96.5194                   53.7587                   54.4243                   71.5681                   55.0818                   7.6158                    44.7772                   56.0089                   50.9608                   63.1269                   82.7647                   6.3246                    89.3756                   39.0128                   92.0217                   6.4031                    99.2975                   55.9017                   97.4936                   99999.0                   24.1661                   55.4437                   34.5254                   69.2026                   52.9245                   48.0416                   69.7782                   51.1566                   7.8102                    32.3883                   41.1096                   118.8108                  124.8519                  109.3435                  61.8547                   69.2892                   47.7074                   56.0446                   52.9245                   48.6621                   90.802                    18.0278                   6.3246                    
44                        86.2786                   45.0444                   51.225                    70.4557                   34.4093                   38.3275                   17.0294                   48.3011                   43.8634                   53.7587                   16.4924                   44.4072                   39.0512                   56.4004                   64.3817                   48.0416                   47.676                    38.2884                   74.8131                   47.1699                   98.5951                   101.0198                  61.9839                   91.7606                   53.0094                   41.1096                   71.8471                   51.4782                   25.1794                   29.0                      51.4296                   53.0754                   43.3244                   69.527                    20.0                      68.2642                   61.6604                   69.4262                   26.4764                   83.3547                   61.7171                   86.1452                   24.1661                   99999.0                   37.1214                   20.0                      45.9674                   57.3149                   42.9418                   57.28                     48.5489                   16.7631                   54.231                    23.0217                   95.268                    101.2126                  88.2043                   53.535                    71.7008                   50.1597                   40.6079                   57.3149                   48.4149                   70.6612                   41.4849                   20.3961                   
45                        82.28                     71.1969                   86.4523                   33.9706                   5.831                     70.3491                   46.3897                   81.3941                   7.0711                    73.3757                   50.6952                   66.7083                   64.0078                   91.2853                   90.3383                   73.8241                   76.0066                   8.9443                    43.9659                   81.3204                   97.0824                   64.5368                   77.2787                   121.7949                  87.7268                   68.2642                   106.0754                  84.8999                   59.6657                   56.6127                   84.2912                   88.8651                   8.544                     34.4093                   49.2544                   75.06                     94.3398                   70.214                    60.208                    46.3249                   98.2293                   109.7862                  55.4437                   37.1214                   99999.0                   21.0238                   49.0                      93.6002                   76.3806                   24.3516                   82.7345                   50.448                    87.8237                   14.5602                   87.2353                   91.9239                   92.228                    28.2843                   106.8878                  43.9318                   8.0623                    93.6002                   83.6301                   80.0062                   73.2462                   54.5711                   
46                        90.9725                   62.5859                   71.218                    51.8845                   16.4924                   49.366                    25.4951                   68.0955                   28.0713                   54.1295                   30.4631                   60.2993                   55.9017                   76.4003                   82.2253                   65.5134                   66.0984                   19.2354                   54.8179                   67.1193                   104.8094                  82.1523                   75.326                    111.0856                  73.0068                   58.9406                   91.8368                   71.3442                   39.2173                   46.5725                   71.1969                   73.0                      29.0689                   50.2195                   28.2843                   77.7946                   73.3348                   76.0263                   39.5601                   65.3911                   81.3449                   103.407                   34.5254                   20.0                      21.0238                   99999.0                   52.3927                   77.0779                   62.7694                   37.6431                   68.5055                   30.0832                   66.9104                   7.6158                    98.0816                   103.4795                  96.933                    33.6155                   91.6788                   34.9285                   21.9317                   77.0779                   68.4105                   81.4923                   52.2398                   34.176                    
47                        40.3113                   37.3363                   65.4905                   76.2168                   52.2398                   81.6333                   62.9682                   56.0892                   50.4876                   99.7046                   60.803                    29.5466                   31.7805                   68.2495                   51.225                    38.4838                   43.6578                   57.1402                   91.9239                   58.5491                   53.0094                   103.3538                  30.4138                   84.5044                   64.9384                   37.108                    78.7718                   59.439                    67.7422                   33.1361                   57.7235                   69.3542                   46.6905                   79.555                    65.8559                   26.1725                   102.5524                  23.8537                   69.6419                   83.6481                   80.399                    66.0303                   69.2026                   45.9674                   49.0                      52.3927                   99999.0                   75.326                    53.3385                   72.4431                   59.6825                   61.4003                   94.541                    47.1275                   49.6488                   55.7584                   44.5982                   77.1038                   82.28                     86.977                    57.0088                   75.326                    63.2851                   31.0161                   84.7231                   64.0703                   
48                        106.099                   40.4475                   10.0499                   127.4402                  91.5478                   49.2544                   57.8014                   20.3961                   99.8649                   78.1601                   50.2494                   48.2597                   44.0                      10.0                      43.0116                   41.0                      34.9285                   95.5877                   131.7118                  17.0294                   111.9464                  158.0506                  64.195                    48.0521                   11.7047                   39.0512                   20.025                    18.0278                   45.31                     43.1741                   20.2485                   6.0                       98.4784                   126.8109                  57.2451                   80.2808                   51.6236                   88.955                    46.8188                   139.8463                  5.099                     59.8164                   52.9245                   57.3149                   93.6002                   77.0779                   75.326                    99999.0                   22.0227                   114.5862                  16.1245                   51.1077                   45.607                    80.1561                   117.8855                  124.1491                  96.566                    109.9864                  16.4924                   100.1848                  97.8366                   0.0                       12.0416                   77.7946                   50.04                     48.3011                   
49                        84.8999                   19.3132                   12.1655                   110.3087                  75.2861                   50.9215                   49.4975                   5.3852                    82.0731                   78.8543                   42.19                     26.6833                   22.0227                   15.6525                   29.0689                   20.5913                   15.0                      79.8123                   117.3243                  5.3852                    91.7878                   140.7587                  44.2945                   49.4773                   12.083                    17.2627                   29.6985                   8.6023                    41.3038                   21.9317                   8.544                     16.0312                   80.1561                   110.5351                  50.1597                   59.4643                   62.3699                   67.4685                   43.4166                   121.918                   27.074                    50.2892                   48.0416                   42.9418                   76.3806                   62.7694                   53.3385                   22.0227                   99999.0                   99.0202                   6.7082                    43.1856                   54.8179                   64.2028                   96.5401                   102.8397                  76.9415                   96.3846                   31.0644                   91.214                    81.6884                   22.0227                   10.0                      57.6975                   52.9245                   42.0                      
50                        102.1812                  95.2575                   108.3005                  17.0                      23.8537                   83.5703                   61.2944                   104.2017                  22.0227                   78.0064                   67.4166                   91.0                      88.1022                   113.3578                  114.5426                  97.9439                   99.8499                   19.2094                   19.6469                   103.7111                  117.2774                  45.1885                   101.415                   145.6194                  109.8772                  92.1792                   128.5496                  107.6151                  75.6637                   80.2621                   107.2007                  110.3177                  26.0                      13.0                      63.5059                   98.1275                   106.6068                  92.1358                   75.591                    31.0644                   118.9285                  134.1343                  69.7782                   57.28                     24.3516                   37.6431                   72.4431                   114.5862                  99.0202                   99999.0                   105.119                   66.888                    101.2423                  34.8281                   105.3043                  109.2016                  114.2147                  13.0                      128.8177                  38.3275                   17.4929                   114.5862                  105.4751                  103.3925                  86.0349                   70.8308                   
51                        90.0278                   24.3311                   6.0828                    116.6919                  81.4678                   52.1728                   53.6004                   4.4721                    88.5268                   80.7527                   46.0977                   32.1403                   28.0713                   8.9443                    29.8329                   25.0                      18.9737                   85.9127                   123.2234                  1.4142                    96.2081                   147.187                   48.4665                   45.3982                   5.3852                    23.0                      23.4307                   4.1231                    44.0114                   28.6356                   5.831                     10.198                    86.6833                   116.7776                  53.9351                   64.2884                   61.0328                   72.8354                   46.0                      128.4251                  21.0238                   49.6588                   51.1566                   48.5489                   82.7345                   68.5055                   59.6825                   16.1245                   6.7082                    105.119                   99999.0                   47.0744                   53.8516                   70.2922                   101.789                   108.0602                  81.0247                   102.0833                  24.4131                   95.8175                   87.8635                   16.1245                   5.0                       62.0322                   53.8516                   45.3982                   
52                        101.5332                  51.923                    47.7598                   81.8596                   46.4866                   21.587                    6.7082                    48.3735                   57.4891                   39.9625                   1.0                       53.7122                   47.5395                   53.1413                   69.5845                   54.8179                   52.6118                   49.2443                   82.2192                   45.8912                   113.1371                  111.8928                  72.9452                   92.3959                   50.2892                   47.8017                   68.7095                   50.8035                   9.2195                    37.5766                   51.4782                   48.3322                   57.7062                   79.7559                   7.0                       81.6884                   45.1774                   84.22                     10.0                      95.462                    54.6443                   91.6624                   7.8102                    16.7631                   50.448                    30.0832                   61.4003                   51.1077                   43.1856                   66.888                    47.0744                   99999.0                   38.0                      35.9026                   111.018                   117.0684                  101.671                   60.208                    67.082                    49.2443                   52.0                      51.1077                   45.2217                   83.2346                   24.7386                   4.1231                    
53                        132.9699                  72.1388                   50.0899                   117.3414                  83.3607                   17.72                     41.4367                   57.6888                   94.8947                   38.0132                   38.0132                   77.4661                   71.218                    53.8516                   83.4865                   74.2496                   69.4262                   85.3756                   113.6486                  53.535                    142.5623                  146.3284                  97.0824                   93.6216                   53.2259                   68.6804                   65.307                    57.8014                   29.0689                   63.8122                   59.6825                   47.5395                   95.4254                   114.2322                  38.6394                   109.859                   8.0623                    115.1043                  28.0                      131.3202                  45.5412                   103.3538                  32.3883                   54.231                    87.8237                   66.9104                   94.541                    45.607                    54.8179                   101.2423                  53.8516                   38.0                      99999.0                   73.437                    143.5584                  149.8166                  129.0155                  92.1358                   60.531                    73.4098                   88.295                    45.607                    49.2443                   109.6358                  15.2315                   34.0147                   
54                        84.7231                   61.6847                   73.5527                   47.4342                   11.4018                   56.0803                   32.0624                   69.4046                   21.587                    61.7414                   36.1386                   58.4637                   54.7083                   78.5684                   81.2712                   64.5136                   65.7951                   15.6205                   53.3385                   68.884                    98.8383                   78.0064                   72.0                      111.3643                  75.0733                   58.3095                   93.723                    72.8011                   45.1221                   46.0977                   72.4224                   75.6902                   22.0227                   46.6905                   35.0143                   73.0068                   80.0999                   70.3847                   45.7056                   60.4152                   84.6463                   101.8676                  41.1096                   23.0217                   14.5602                   7.6158                    47.1275                   80.1561                   64.2028                   34.8281                   70.2922                   35.9026                   73.437                    99999.0                   91.4002                   96.6747                   91.7061                   33.5261                   94.0691                   39.9249                   17.6918                   80.1561                   70.7248                   77.1038                   59.0339                   40.025                    
55                        12.0                      77.4661                   107.8703                  101.2719                  92.2822                   131.2288                  112.2943                  97.4936                   85.0882                   148.7347                  110.4355                  69.857                    75.0                      109.0367                  81.0987                   76.9415                   83.0241                   96.1769                   122.2497                  101.0                     18.0278                   119.2686                  55.0091                   109.1421                  106.3673                  79.3095                   115.0043                  100.1299                  117.3456                  80.2309                   98.0051                   111.9866                  81.0247                   107.0794                  115.2562                  38.0526                   151.6113                  29.1204                   119.2686                  102.0196                  122.6418                  83.1685                   118.8108                  95.268                    87.2353                   98.0816                   49.6488                   117.8855                  96.5401                   105.3043                  101.789                   111.018                   143.5584                  91.4002                   99999.0                   6.3246                    29.5296                   114.2366                  120.1041                  130.384                   94.8103                   117.8855                  106.3015                  42.107                    134.3019                  113.719                   
56                        18.1108                   83.7437                   114.1403                  104.3456                  97.0979                   137.379                   118.2286                  103.7545                  89.4427                   154.5639                  116.4989                  76.1577                   81.3204                   115.2606                  87.023                    83.1865                   89.2693                   100.8464                  125.6861                  107.28                    20.6155                   121.0165                  61.0737                   114.5426                  112.6144                  85.6154                   121.0372                  106.3673                  123.4909                  86.539                    104.2353                  118.2582                  85.4225                   110.354                   121.2106                  44.1814                   157.867                   35.4401                   125.3994                  104.3072                  128.8914                  88.3233                   124.8519                  101.2126                  91.9239                   103.4795                  55.7584                   124.1491                  102.8397                  109.2016                  108.0602                  117.0684                  149.8166                  96.6747                   6.3246                    99999.0                   34.176                    118.5327                  126.1943                  135.3514                  99.363                    124.1491                  112.5877                  48.0104                   140.46                    119.8165                  
57                        19.799                    57.8014                   86.9253                   114.4378                  96.1041                   119.5031                  104.6231                  76.5572                   92.3472                   141.4001                  100.896                   51.614                    57.8014                   86.977                    55.9017                   56.356                    62.1691                   100.8067                  133.015                   80.5295                   16.0312                   137.2771                  32.6497                   80.895                    84.8646                   60.7454                   90.2552                   78.5493                   106.1037                  65.7951                   76.3217                   91.0                      88.278                    119.105                   107.2007                  20.0                      137.0036                  22.0907                   108.2451                  118.4567                  100.9009                  54.3415                   109.3435                  88.2043                   92.228                    96.933                    44.5982                   96.566                    76.9415                   114.2147                  81.0247                   101.671                   129.0155                  91.7061                   29.5296                   34.176                    99999.0                   120.5073                  95.901                    131.5751                  100.2846                  96.566                    85.9069                   19.4165                   122.3479                  103.4795                  
58                        110.0636                  95.1893                   104.6231                  29.4279                   25.02                     74.7061                   54.037                    101.7104                  29.1548                   66.2722                   60.8769                   91.9239                   88.2326                   109.859                   114.7911                  98.0306                   99.1615                   20.0                      22.0227                   100.7025                  125.0                     54.8179                   104.4797                  144.5061                  106.5082                  91.7606                   125.3635                  104.9571                  68.4105                   79.4796                   104.8094                  106.2121                  33.2415                   24.0                      55.8032                   103.2376                  96.933                    98.4784                   68.0074                   43.1045                   114.0219                  135.3403                  61.8547                   53.535                    28.2843                   33.6155                   77.1038                   109.9864                  96.3846                   13.0                      102.0833                  60.208                    92.1358                   33.5261                   114.2366                  118.5327                  120.5073                  99999.0                   125.0                     25.4951                   20.2237                   109.9864                  101.8332                  108.0417                  76.922                    63.8905                   
59                        108.1157                  45.1221                   20.5183                   140.8581                  105.3613                  65.6201                   73.7902                   26.8328                   112.8051                  94.4299                   66.1891                   53.1507                   50.5964                   15.6205                   40.025                    44.5533                   38.833                    109.6586                  146.4923                  25.807                    111.8034                  171.406                   65.123                    34.0147                   19.2094                   45.2217                   6.4031                    23.2594                   61.6847                   52.8394                   24.6982                   18.868                    111.0405                  140.716                   73.4098                   82.0549                   65.7343                   92.0489                   63.2456                   152.7514                  15.0333                   51.4004                   69.2892                   71.7008                   106.8878                  91.6788                   82.28                     16.4924                   31.0644                   128.8177                  24.4131                   67.082                    60.531                    94.0691                   120.1041                  126.1943                  95.901                    125.0                     99999.0                   116.297                   111.7318                  16.4924                   23.3452                   78.4092                   66.2722                   64.4748                   
60                        124.3543                  95.1893                   96.933                    54.9181                   38.4187                   57.28                     42.5441                   96.566                    48.1664                   42.45                     50.1597                   94.0213                   89.0225                   102.3181                  114.5295                  98.1835                   97.7394                   35.3553                   42.9535                   94.5569                   138.6542                  78.5175                   110.0273                  140.684                   99.368                    91.2688                   117.9237                  99.3277                   55.2268                   79.1012                   99.7246                   97.5756                   51.6236                   49.2544                   42.9418                   112.641                   76.8505                   110.3087                  54.0833                   68.469                    103.4456                  136.2975                  47.7074                   50.1597                   43.9318                   34.9285                   86.977                    100.1848                  91.214                    38.3275                   95.8175                   49.2443                   73.4098                   39.9249                   130.384                   135.3514                  131.5751                  25.4951                   116.297                   99999.0                   37.5366                   100.1848                  94.3398                   116.4174                  58.7963                   51.8845                   
61                        90.1388                   77.8203                   91.2195                   30.0167                   6.4031                    70.6116                   47.1275                   86.8332                   10.6301                   70.406                    52.3927                   73.736                    70.6824                   96.2081                   97.17                     80.5295                   82.365                    3.0                       36.7696                   86.4523                   104.9952                  60.4649                   85.0                      128.1288                  92.6984                   74.7061                   111.2879                  90.2718                   61.0983                   62.7694                   89.8109                   93.3809                   14.2127                   29.0                      49.7293                   83.0963                   94.3663                   78.2624                   61.3514                   43.4626                   102.3035                  117.0043                  56.0446                   40.6079                   8.0623                    21.9317                   57.0088                   97.8366                   81.6884                   17.4929                   87.8635                   52.0                      88.295                    17.6918                   94.8103                   99.363                    100.2846                  20.2237                   111.7318                  37.5366                   99999.0                   97.8366                   88.3912                   88.0                      73.3485                   56.0803                   
62                        106.099                   40.4475                   10.0499                   127.4402                  91.5478                   49.2544                   57.8014                   20.3961                   99.8649                   78.1601                   50.2494                   48.2597                   44.0                      10.0                      43.0116                   41.0                      34.9285                   95.5877                   131.7118                  17.0294                   111.9464                  158.0506                  64.195                    48.0521                   11.7047                   39.0512                   20.025                    18.0278                   45.31                     43.1741                   20.2485                   6.0                       98.4784                   126.8109                  57.2451                   80.2808                   51.6236                   88.955                    46.8188                   139.8463                  5.099                     59.8164                   52.9245                   57.3149                   93.6002                   77.0779                   75.326                    0.0                       22.0227                   114.5862                  16.1245                   51.1077                   45.607                    80.1561                   117.8855                  124.1491                  96.566                    109.9864                  16.4924                   100.1848                  97.8366                   99999.0                   12.0416                   77.7946                   50.04                     48.3011                   
63                        94.5939                   28.8617                   2.8284                    117.5925                  82.0244                   48.5077                   51.8652                   9.434                     89.6437                   77.3175                   44.2719                   36.4966                   32.0156                   8.0623                    34.7131                   29.7321                   23.7697                   86.3134                   123.2274                  5.3852                    101.0198                  148.1654                  53.3104                   48.0416                   5.099                     27.1662                   23.7065                   8.6023                    41.3038                   31.3209                   10.6301                   6.0828                    88.0057                   117.3797                  51.923                    68.9638                   56.3028                   77.2787                   43.1856                   129.6302                  17.1172                   54.1202                   48.6621                   48.4149                   83.6301                   68.4105                   63.2851                   12.0416                   10.0                      105.4751                  5.0                       45.2217                   49.2443                   70.7248                   106.3015                  112.5877                  85.9069                   101.8332                  23.3452                   94.3398                   88.3912                   12.0416                   99999.0                   66.8506                   50.01                     43.1741                   
64                        30.1496                   38.4708                   68.0074                   106.2309                  83.0963                   100.449                   86.6083                   57.5847                   81.3941                   123.1463                  82.4197                   32.2025                   38.4187                   68.4105                   39.0128                   37.1618                   43.0813                   88.0511                   122.8007                  61.4654                   34.176                    131.8484                  13.6015                   68.0074                   66.0984                   41.3401                   73.1095                   59.7746                   87.2067                   46.6905                   57.5674                   72.111                    77.5242                   110.0227                  89.0449                   6.4031                    117.6138                  17.8045                   89.3756                   112.361                   82.28                     43.566                    90.802                    70.6612                   80.0062                   81.4923                   31.0161                   77.7946                   57.6975                   103.3925                  62.0322                   83.2346                   109.6358                  77.1038                   42.107                    48.0104                   19.4165                   108.0417                  78.4092                   116.4174                  88.0                      77.7946                   66.8506                   99999.0                   103.2473                  84.8116                   
65                        124.2779                  67.6757                   51.6236                   102.2008                  68.593                    3.1623                    27.0                      56.921                    80.3057                   28.1603                   25.0                      71.7008                   65.2993                   56.3205                   81.939                    70.1783                   66.242                    70.406                    98.4886                   53.1601                   134.9518                  131.103                   91.5478                   97.3293                   54.7449                   63.8201                   70.0071                   57.9741                   17.0                      56.5685                   59.4811                   50.1597                   81.0555                   99.0202                   24.0208                   102.6499                  21.095                    106.6068                  15.2315                   116.211                   51.4782                   103.1213                  18.0278                   41.4849                   73.2462                   52.2398                   84.7231                   50.04                     52.9245                   86.0349                   53.8516                   24.7386                   15.2315                   59.0339                   134.3019                  140.46                    122.3479                  76.922                    66.2722                   58.7963                   73.3485                   50.04                     50.01                     103.2473                  99999.0                   21.1896                   
66                        104.0192                  52.2015                   45.607                    85.9069                   50.5964                   18.0278                   9.8995                    47.0425                   61.6117                   38.9102                   4.0                       54.5894                   48.3011                   50.9608                   69.2315                   55.0273                   52.3927                   53.3104                   85.9127                   44.2832                   115.3126                  115.8836                  74.0945                   90.7965                   48.2701                   48.1041                   66.4078                   49.2544                   5.099                     38.5876                   50.0899                   45.8803                   61.8142                   83.7257                   8.9443                    83.5464                   41.3038                   86.5563                   6.0828                    99.5389                   51.6236                   91.2414                   6.3246                    20.3961                   54.5711                   34.176                    64.0703                   48.3011                   42.0                      70.8308                   45.3982                   4.1231                    34.0147                   40.025                    113.719                   119.8165                  103.4795                  63.8905                   64.4748                   51.8845                   56.0803                   48.3011                   43.1741                   84.8116                   21.1896                   99999.0                   
;
SCALAR TOTAL  /66/;
SCALAR NODES  /60/;
SCALAR W  /2/;
SCALAR Y  /132/;
SCALAR M  /1/;
BINARY VARIABLE X(I,J,K)  x variable ;
INTEGER VARIABLE U(K,O)    u variable ;
VARIABLE   Z         objective ;
EQUATIONS
CON1(K)   constraint 1
CON2(K)   constraint 2
CON3   constraint 3
CON4(O)   constraint 4
CON5(O,K)   constraint 5
CON6(O,K)   constraint 6
CON7(K)   constraint 7
CON10(O,P,K)   constraint 10
CON11(O,K)   constraint 11;
CON1(K).. SUM(O,X(K,O,K)) =E= 1;
CON2(K).. SUM(O,X(O,K,K)) =E= 1;
CON3..  SUM((K,L),X(K,L,K)) =E= 0;
CON4(O) .. SUM(K,X(K,O,K)) + SUM((P,K),X(P,O,K)) =e= W;
CON5(O,K) .. X(K,O,K) + SUM(P,X(P,O,K)) =L= 1;
CON6(O,K) .. X(K,O,K) + SUM(P,X(P,O,K)) - X(O,K,K) - SUM(P,X(O,P,K)) =e= 0;
CON7(K) .. Z =G= SUM(O,C(K,O)*X(K,O,K) + C(O,K)*X(O,K,K)) + SUM((P,O),C(P,O)*X(P,O,K));
CON10(O,P,K) .. U(K,O) - U(K,P) + (TOTAL-1)*X(O,P,K) + (TOTAL-3)*X(P,O,K) =L= (TOTAL-2);
CON11(O,K) .. X(O,O,K) =e= 0;
MODEL TRANSPORT /ALL/;
Option Reslim = 28800;
SOLVE TRANSPORT USING MIP MINIMIZING Z ;
