SET
I  first /1*46/
K(I)  depot1 /1*6/
O(I)  node1 /7*46/
alias(I,J);
alias(K,L);
alias(O,P);
TABLE C(I,J)  node to node
                          1                         2                         3                         4                         5                         6                         7                         8                         9                         10                        11                        12                        13                        14                        15                        16                        17                        18                        19                        20                        21                        22                        23                        24                        25                        26                        27                        28                        29                        30                        31                        32                        33                        34                        35                        36                        37                        38                        39                        40                        41                        42                        43                        44                        45                        46                        
1                         99999.0                   99999.0                   99999.0                   99999.0                   99999.0                   99999.0                   92.5905                   34.9285                   57.5587                   101.789                   48.8365                   93.7763                   118.5327                  79.1012                   40.8044                   41.3401                   84.7585                   3.1623                    127.7693                  124.5351                  46.0435                   16.5529                   138.6795                  68.7095                   123.3288                  108.5587                  134.3317                  111.018                   74.9667                   84.0773                   84.8646                   87.0919                   74.4648                   31.0                      108.5772                  103.9423                  23.1948                   25.0799                   85.1587                   53.1601                   75.8024                   130.6331                  106.1179                  65.1153                   54.8179                   81.3449                   
2                         99999.0                   99999.0                   99999.0                   99999.0                   99999.0                   99999.0                   70.214                    96.0052                   83.3547                   96.1769                   28.8444                   122.4132                  131.5029                  87.7268                   57.2713                   99.2472                   74.3034                   64.1327                   67.9412                   67.424                    24.7588                   79.404                    80.1561                   40.0                      105.019                   78.4092                   70.7248                   56.356                    10.4403                   65.3911                   46.2709                   116.4989                  43.2897                   96.1769                   68.2642                   97.4936                   88.8426                   41.1096                   35.2278                   13.0                      28.2312                   72.6223                   114.2016                  3.0                       11.0454                   41.3038                   
3                         99999.0                   99999.0                   99999.0                   99999.0                   99999.0                   99999.0                   80.2808                   126.1428                  108.5035                  109.6586                  54.3783                   145.3616                  148.9228                  107.6151                  84.1724                   129.0155                  89.1964                   94.541                    47.7598                   50.8035                   52.8015                   109.7725                  60.1664                   54.0833                   111.5078                  82.2982                   44.6878                   45.1774                   21.5407                   78.492                    53.9073                   139.9893                  54.1202                   126.5899                  67.4166                   110.4536                  119.2393                  71.3092                   35.4401                   43.2897                   36.3593                   54.1202                   131.1373                  31.0483                   41.4367                   50.2096                   
4                         99999.0                   99999.0                   99999.0                   99999.0                   99999.0                   99999.0                   42.9535                   93.2309                   44.643                    15.0                      117.5457                  41.1096                   28.6007                   21.0                      61.5224                   87.2067                   31.241                    97.0464                   111.6288                  103.4456                  110.3087                  94.921                    114.5426                  138.6542                  38.9102                   52.469                    127.5813                  92.8493                   112.4455                  42.2019                   67.424                    40.7063                   143.5584                  105.9481                  68.1542                   16.1245                   106.48                    100.2247                  139.2695                  97.1288                   131.7649                  108.6692                  10.8167                   106.5082                  98.9798                   70.4344                   
5                         99999.0                   99999.0                   99999.0                   99999.0                   99999.0                   99999.0                   9.2195                    93.3381                   47.8853                   25.0                      90.0944                   69.3542                   64.6375                   30.0167                   46.5296                   90.1388                   6.0                       83.7735                   77.4661                   69.7209                   82.8734                   87.9204                   82.0975                   109.2016                  37.3363                   25.5539                   92.72                     57.9741                   78.8923                   6.4031                    31.4006                   66.0076                   113.5297                  103.0776                  36.1248                   26.0768                   100.6876                  78.5175                   106.4707                  67.1863                   99.8098                   75.4255                   46.8722                   74.3236                   68.6804                   34.6554                   
6                         99999.0                   99999.0                   99999.0                   99999.0                   99999.0                   99999.0                   57.2713                   142.4675                  107.7868                  85.44                     94.0319                   135.0741                  127.0157                  95.4254                   92.358                    142.3376                  71.7008                   118.7139                  12.083                    4.0                       89.4036                   130.2498                  18.0278                   101.2423                  76.2168                   48.7647                   28.8444                   10.2956                   63.1585                   61.2046                   41.0                      131.461                   102.489                   147.6482                  31.7805                   85.235                    142.1724                  100.4988                  85.3288                   73.0                      84.4808                   10.198                    110.0545                  67.7422                   72.4707                   42.3792                   
7                         92.5905                   70.214                    80.2808                   42.9535                   9.2195                    57.2713                   99999.0                   101.2373                  56.7979                   30.0                      91.1373                   78.1601                   71.1969                   39.1152                   53.0094                   98.4073                   15.1327                   89.4707                   69.1231                   61.1882                   84.0536                   94.8103                   73.2462                   109.0413                  35.2278                   17.0294                   84.7585                   49.98                     76.5572                   8.6023                    26.4008                   75.0067                   113.031                   110.4536                  27.0185                   30.4795                   107.6151                  82.0                      104.3887                  67.4759                   98.3514                   66.7533                   53.6656                   73.0821                   68.7314                   30.5287                   
8                         34.9285                   96.0052                   126.1428                  93.2309                   93.3381                   142.4675                  101.2373                  99999.0                   49.2443                   99.985                    83.2406                   73.0616                   103.8171                  74.3034                   50.6063                   8.544                     89.1964                   34.7851                   150.8807                  146.154                   79.6241                   18.3848                   160.4618                  103.6195                  125.1                     118.2582                  160.0781                  132.2309                  106.0189                  92.8493                   102.4207                  67.0                      109.3846                  14.0357                   123.1463                  102.2155                  19.2354                   58.2495                   119.3315                  83.006                    109.8818                  152.4631                  95.8801                   96.0208                   85.0                      100.2247                  
9                         57.5587                   83.3547                   108.5035                  44.643                    47.8853                   107.7868                  56.7979                   49.2443                   99999.0                   50.774                    86.5563                   40.3609                   61.0                      25.0599                   26.9072                   44.2041                   42.72                     54.7449                   118.2709                  111.7587                  79.9812                   50.4876                   125.4472                  109.1238                  76.2168                   73.4302                   131.0343                  98.326                    93.5361                   49.3964                   67.1193                   33.9411                   114.6909                  61.4654                   82.2192                   53.0                      61.8466                   64.1405                   116.211                   72.4224                   107.2986                  117.9576                  49.0918                   84.9058                   74.6324                   67.0075                   
10                        101.789                   96.1769                   109.6586                  15.0                      25.0                      85.44                     30.0                      99.985                    50.774                    99999.0                   112.7918                  55.5428                   41.6293                   25.807                    61.4003                   94.8683                   21.9317                   98.656                    97.4987                   89.1964                   105.513                   99.0202                   99.925                    132.8533                  26.2488                   37.6563                   113.719                   79.1581                   103.7738                  31.4006                   55.8659                   54.4243                   137.4191                  111.8034                  53.7587                   2.2361                    111.234                   98.1835                   131.2288                  90.824                    124.3262                  94.255                    24.7386                   98.8383                   92.477                    59.4643                   
11                        48.8365                   28.8444                   54.3783                   117.5457                  90.0944                   94.0319                   91.1373                   83.2406                   86.5563                   112.7918                  99999.0                   126.9055                  142.706                   98.387                    60.0                      88.6002                   91.2195                   48.5077                   96.5401                   96.2601                   7.2801                    65.0                      108.8531                  22.6274                   126.321                   102.3132                  97.949                    85.0882                   33.4215                   84.5931                   70.859                    120.4159                  28.3196                   79.511                    94.5939                   114.4771                  71.2531                   25.4951                   36.3456                   24.1868                   27.074                    101.4002                  126.6254                  26.4008                   23.5372                   65.9242                   
12                        93.7763                   122.4132                  145.3616                  41.1096                   69.3542                   135.0741                  78.1601                   73.0616                   40.3609                   55.5428                   126.9055                  99999.0                   34.0                      39.8121                   67.1789                   65.0                      63.3877                   91.3893                   146.6595                  139.0432                  120.3412                  82.4621                   151.4001                  149.4824                  79.8499                   91.1976                   161.4094                  126.9212                  132.3102                  73.9797                   97.5295                   6.7082                    155.0516                  87.0919                   105.0762                  57.0088                   90.7965                   104.0433                  156.0833                  112.1606                  147.3228                  144.7791                  35.5106                   124.2014                  114.3372                  98.9798                   
13                        118.5327                  131.5029                  148.9228                  28.6007                   64.6375                   127.0157                  71.1969                   103.8171                  61.0                      41.6293                   142.706                   34.0                      99999.0                   44.4185                   83.9345                   96.3379                   59.8164                   115.7411                  139.0863                  130.7402                  135.595                   110.0727                  141.0886                  164.478                   58.0                      78.7464                   155.348                   120.7684                  140.264                   70.8025                   96.0208                   38.2753                   169.6143                  117.6138                  95.2733                   41.7852                   120.0666                  123.13                    166.6433                  123.7093                  158.8081                  135.6798                  17.8045                   133.8432                  125.6702                  99.0202                   
14                        79.1012                   87.7268                   107.6151                  21.0                      30.0167                   95.4254                   39.1152                   74.3034                   25.0599                   25.807                    98.387                    39.8121                   44.4185                   99999.0                   40.7922                   69.0652                   24.0208                   76.0592                   106.9205                  99.4082                   91.2414                   74.4648                   112.0402                  120.0666                  51.6624                   53.8516                   121.5977                  87.1321                   96.8969                   34.2345                   57.8705                   36.0555                   125.1958                  86.406                    66.1211                   28.0179                   86.3308                   79.8123                   122.6744                  79.404                    114.6342                  105.2331                  28.4605                   89.9389                   81.4002                   59.6154                   
15                        40.8044                   57.2713                   84.1724                   61.5224                   46.5296                   92.358                    53.0094                   50.6063                   26.9072                   61.4003                   60.0                      67.1789                   83.9345                   40.7922                   99999.0                   49.98                     44.0114                   37.6431                   101.3903                  96.1353                   53.2635                   41.8688                   110.3857                  82.4621                   82.5409                   69.6563                   112.0089                  82.2192                   67.624                    44.4072                   51.8941                   60.8276                   87.9659                   58.0517                   72.8011                   63.5059                   54.6717                   39.2173                   89.4036                   45.793                    80.4301                   102.4597                  69.1231                   58.5918                   48.0208                   49.98                     
16                        41.3401                   99.2472                   129.0155                  87.2067                   90.1388                   142.3376                  98.4073                   8.544                     44.2041                   94.8683                   88.6002                   65.0                      96.3379                   69.0652                   49.98                     99999.0                   85.6329                   40.7063                   151.2415                  146.1095                  84.4808                   25.0                      160.3652                  109.5901                  120.4201                  115.421                   161.2079                  132.1893                  109.4578                  90.2109                   101.7693                  59.0762                   115.395                   22.3607                   121.4331                  97.0824                   27.7308                   63.2456                   124.3262                  86.2844                   114.8434                  152.4336                  89.1964                   99.5038                   88.3629                   99.96                     
17                        84.7585                   74.3034                   89.1964                   31.241                    6.0                       71.7008                   15.1327                   89.1964                   42.72                     21.9317                   91.2195                   63.3877                   59.8164                   24.0208                   44.0114                   85.6329                   99999.0                   81.5966                   83.3607                   75.6637                   83.9524                   84.7231                   88.0909                   111.0                     38.6005                   30.8707                   98.4937                   63.7887                   82.0975                   11.1803                   36.3593                   60.0083                   115.5206                  99.4032                   42.107                    23.4094                   97.4166                   78.0577                   109.4166                  68.9493                   102.4207                  81.3941                   42.0119                   76.9415                   70.5762                   39.2046                   
18                        3.1623                    64.1327                   94.541                    97.0464                   83.7735                   118.7139                  89.4707                   34.7851                   54.7449                   98.656                    48.5077                   91.3893                   115.7411                  76.0592                   37.6431                   40.7063                   81.5966                   99999.0                   125.3994                  122.0369                  45.2769                   16.4924                   136.2131                  68.942                    120.1666                  105.4751                  132.2309                  108.4666                  73.5527                   80.9506                   82.0244                   84.6936                   74.7329                   32.1403                   105.6456                  100.8067                  24.7386                   24.0208                   84.7231                   51.4198                   75.3127                   128.1601                  103.1746                  63.6396                   53.1507                   78.5684                   
19                        127.7693                  67.9412                   47.7598                   111.6288                  77.4661                   12.083                    69.1231                   150.8807                  118.2709                  97.4987                   96.5401                   146.6595                  139.0863                  106.9205                  101.3903                  151.2415                  83.3607                   125.3994                  99999.0                   8.6023                    92.6553                   137.8006                  12.53                     101.0742                  88.0057                   60.8276                   17.0294                   20.0                      64.0703                   72.6911                   51.1566                   142.8986                  101.6366                  155.2611                  43.8634                   97.3088                   149.3754                  105.8017                  83.1685                   77.3369                   83.672                    7.0711                    122.0901                  70.1783                   76.4853                   51.788                    
20                        124.5351                  67.424                    50.8035                   103.4456                  69.7209                   4.0                       61.1882                   146.154                   111.7587                  89.1964                   96.2601                   139.0432                  130.7402                  99.4082                   96.1353                   146.1095                  75.6637                   122.0369                  8.6023                    99999.0                   91.8314                   133.7647                  14.3178                   102.6937                  79.404                    52.3259                   25.6125                   13.9284                   64.846                    65.192                    44.911                    135.4474                  103.7304                  151.182                   35.4683                   88.955                    145.6194                  103.4795                  86.122                    75.6902                   85.703                    6.3246                    113.842                   69.8928                   75.0733                   46.1736                   
21                        46.0435                   24.7588                   52.8015                   110.3087                  82.8734                   89.4036                   84.0536                   79.6241                   79.9812                   105.513                   7.2801                    120.3412                  135.595                   91.2414                   53.2635                   84.4808                   83.9524                   45.2769                   92.6553                   91.8314                   99999.0                   61.6604                   104.8046                  29.2062                   119.2057                  95.5249                   95.2103                   80.1561                   31.305                    77.4145                   64.3273                   113.8991                  34.7131                   77.026                    88.3233                   107.2007                  69.0072                   21.3776                   39.8497                   17.72                     30.3645                   97.1854                   119.4362                  22.8035                   17.4642                   59.439                    
22                        16.5529                   79.404                    109.7725                  94.921                    87.9204                   130.2498                  94.8103                   18.3848                   50.4876                   99.0202                   65.0                      82.4621                   110.0727                  74.4648                   41.8688                   25.0                      84.7231                   16.4924                   137.8006                  133.7647                  61.6604                   99999.0                   148.0608                  85.235                    122.5398                  111.5213                  145.7841                  119.9542                  89.1403                   86.2148                   91.6079                   75.9276                   91.0                      17.4642                   114.0219                  101.2423                  12.8062                   40.3113                   101.2028                  66.4831                   91.7824                   140.0036                  99.5038                   79.1581                   68.3593                   88.7525                   
23                        138.6795                  80.1561                   60.1664                   114.5426                  82.0975                   18.0278                   73.2462                   160.4618                  125.4472                  99.925                    108.8531                  151.4001                  141.0886                  112.0402                  110.3857                  160.3652                  88.0909                   136.2131                  12.53                     14.3178                   104.8046                  148.0608                  99999.0                   113.6002                  87.2353                   62.3618                   23.0868                   28.2312                   76.5506                   78.0064                   58.9406                   148.0844                  114.1271                  165.4841                  46.5296                   99.4585                   159.8812                  117.2902                  95.5196                   89.1403                   96.1769                   8.0623                    124.6635                  82.4621                   88.3912                   60.407                    
24                        68.7095                   40.0                      54.0833                   138.6542                  109.2016                  101.2423                  109.0413                  103.6195                  109.1238                  132.8533                  22.6274                   149.4824                  164.478                   120.0666                  82.4621                   109.5901                  111.0                     68.942                    101.0742                  102.6937                  29.2062                   85.235                    113.6002                  99999.0                   144.1839                  118.2709                  98.6002                   93.6803                   38.3275                   103.3247                  86.1452                   143.0105                  5.831                     98.2344                   108.1665                  134.4061                  89.7385                   47.4342                   22.8254                   42.0595                   17.8045                   106.9299                  148.0608                  37.0                      40.5216                   81.1542                   
25                        123.3288                  105.019                   111.5078                  38.9102                   37.3363                   76.2168                   35.2278                   125.1                     76.2168                   26.2488                   126.321                   79.8499                   58.0                      51.6624                   82.5409                   120.4201                  38.6005                   120.1666                  88.0057                   79.404                    119.2057                  122.5398                  87.2353                   144.1839                  99999.0                   29.4109                   105.0                     72.8354                   110.6797                  42.0119                   59.4643                   79.6053                   148.0709                  136.3415                  46.0109                   24.2074                   135.0704                  115.849                   138.5135                  102.7035                  132.9662                  83.2166                   45.3542                   107.9352                  103.9471                  64.195                    
26                        108.5587                  78.4092                   82.2982                   52.469                    25.5539                   48.7647                   17.0294                   118.2582                  73.4302                   37.6563                   102.3132                  91.1976                   78.7464                   53.8516                   69.6563                   115.421                   30.8707                   105.4751                  60.8276                   52.3259                   95.5249                   111.5213                  62.3618                   118.2709                  29.4109                   99999.0                   77.5242                   44.0454                   82.9759                   25.4558                   32.1403                   88.8144                   121.6963                  127.3499                  17.2047                   37.108                    124.3262                  96.1353                   110.6029                  78.1601                   105.7213                  57.0088                   62.3699                   81.3941                   79.0569                   37.1214                   
27                        134.3317                  70.7248                   44.6878                   127.5813                  92.72                     28.8444                   84.7585                   160.0781                  131.0343                  113.719                   97.949                    161.4094                  155.348                   121.5977                  112.0089                  161.2079                  98.4937                   132.2309                  17.0294                   25.6125                   95.2103                   145.7841                  23.0868                   98.6002                   105.0                     77.5242                   99999.0                   34.7851                   64.5368                   87.5557                   64.3817                   157.334                   98.1835                   163.1931                  60.4152                   113.6354                  156.7323                  110.9414                  78.3901                   81.8841                   80.8022                   22.8035                   138.1593                  72.4224                   80.6226                   64.0312                   
28                        111.018                   56.356                    45.1774                   92.8493                   57.9741                   10.2956                   49.98                     132.2309                  98.326                    79.1581                   85.0882                   126.9212                  120.7684                  87.1321                   82.2192                   132.1893                  63.7887                   108.4666                  20.0                      13.9284                   80.1561                   119.9542                  28.2312                   93.6803                   72.8354                   44.0454                   34.7851                   99999.0                   55.3624                   52.9528                   31.257                    123.0447                  95.3415                   137.3536                  26.9072                   79.177                    131.8825                  90.5207                   79.2275                   63.4114                   77.4661                   20.2485                   103.4698                  59.0339                   63.0079                   32.28                     
29                        74.9667                   10.4403                   21.5407                   112.4455                  78.8923                   63.1585                   76.5572                   106.0189                  93.5361                   103.7738                  33.4215                   132.3102                  140.264                   96.8969                   67.624                    109.4578                  82.0975                   73.5527                   64.0703                   64.846                    31.305                    89.1403                   76.5506                   38.3275                   110.6797                  82.9759                   64.5368                   55.3624                   99999.0                   72.5603                   51.2445                   126.4792                  40.3113                   105.6835                  71.1126                   104.9571                  98.1529                   50.01                     27.8568                   23.1948                   23.0217                   69.4622                   122.7884                  10.0                      21.095                    46.4866                   
30                        84.0773                   65.3911                   78.492                    42.2019                   6.4031                    61.2046                   8.6023                    92.8493                   49.3964                   31.4006                   84.5931                   73.9797                   70.8025                   34.2345                   44.4072                   90.2109                   11.1803                   80.9506                   72.6911                   65.192                    77.4145                   86.2148                   78.0064                   103.3247                  42.0119                   25.4558                   87.5557                   52.9528                   72.5603                   99999.0                   25.2389                   70.2567                   107.5639                  101.9117                  32.9848                   32.45                     99.0202                   74.1485                   100.1848                  61.3922                   93.6216                   71.0634                   53.0094                   68.1542                   62.8172                   28.3196                   
31                        84.8646                   46.2709                   53.9073                   67.424                    31.4006                   41.0                      26.4008                   102.4207                  67.1193                   55.8659                   70.859                    97.5295                   96.0208                   57.8705                   51.8941                   101.7693                  36.3593                   82.0244                   51.1566                   44.911                    64.3273                   91.6079                   58.9406                   86.1452                   59.4643                   32.1403                   64.3817                   31.257                    51.2445                   25.2389                   99999.0                   93.1719                   89.56                     108.7244                  24.5967                   56.5862                   104.0192                  68.0955                   79.0569                   46.6905                   73.7564                   51.1957                   78.2368                   49.2544                   47.3814                   5.0                       
32                        87.0919                   116.4989                  139.9893                  40.7063                   66.0076                   131.461                   75.0067                   67.0                      33.9411                   54.4243                   120.4159                  6.7082                    38.2753                   36.0555                   60.8276                   59.0762                   60.0083                   84.6936                   142.8986                  135.4474                  113.8991                  75.9276                   148.0844                  143.0105                  79.6053                   88.8144                   157.334                   123.0447                  126.4792                  70.2567                   93.1719                   99999.0                   148.6001                  81.0062                   102.0196                  56.0803                   84.4808                   97.4166                   149.9367                  106.0424                  141.1134                  141.2869                  36.7967                   118.2244                  108.2312                  94.3716                   
33                        74.4648                   43.2897                   54.1202                   143.5584                  113.5297                  102.489                   113.031                   109.3846                  114.6909                  137.4191                  28.3196                   155.0516                  169.6143                  125.1958                  87.9659                   115.395                   115.5206                  74.7329                   101.6366                  103.7304                  34.7131                   91.0                      114.1271                  5.831                     148.0709                  121.6963                  98.1835                   95.3415                   40.3113                   107.5639                  89.56                     148.6001                  99999.0                   103.846                   111.0045                  138.928                   95.3362                   53.2541                   20.5183                   46.6154                   18.0278                   107.7033                  153.0751                  40.3113                   44.9444                   84.5931                   
34                        31.0                      96.1769                   126.5899                  105.9481                  103.0776                  147.6482                  110.4536                  14.0357                   61.4654                   111.8034                  79.511                    87.0919                   117.6138                  86.406                    58.0517                   22.3607                   99.4032                   32.1403                   155.2611                  151.182                   77.026                    17.4642                   165.4841                  98.2344                   136.3415                  127.3499                  163.1931                  137.3536                  105.6835                  101.9117                  108.7244                  81.0062                   103.846                   99999.0                   130.7287                  114.0395                  8.544                     56.0357                   115.849                   83.3607                   106.5692                  157.4293                  109.1421                  95.7549                   85.1587                   106.0                     
35                        108.5772                  68.2642                   67.4166                   68.1542                   36.1248                   31.7805                   27.0185                   123.1463                  82.2192                   53.7587                   94.5939                   105.0762                  95.2733                   66.1211                   72.8011                   121.4331                  42.107                    105.6456                  43.8634                   35.4683                   88.3233                   114.0219                  46.5296                   108.1665                  46.0109                   17.2047                   60.4152                   26.9072                   71.1126                   32.9848                   24.5967                   102.0196                  111.0045                  130.7287                  99999.0                   53.4883                   126.6689                  92.6607                   98.0051                   70.6045                   94.1329                   40.5216                   78.4474                   71.2531                   71.0634                   29.1548                   
36                        103.9423                  97.4936                   110.4536                  16.1245                   26.0768                   85.235                    30.4795                   102.2155                  53.0                      2.2361                    114.4771                  57.0088                   41.7852                   28.0179                   63.5059                   97.0824                   23.4094                   100.8067                  97.3088                   88.955                    107.2007                  101.2423                  99.4585                   134.4061                  24.2074                   37.108                    113.6354                  79.177                    104.9571                  32.45                     56.5862                   56.0803                   138.928                   114.0395                  53.4883                   99999.0                   113.4637                  100.1249                  132.484                   92.358                    125.6742                  93.9202                   25.318                    100.1798                  93.984                    60.3075                   
37                        23.1948                   88.8426                   119.2393                  106.48                    100.6876                  142.1724                  107.6151                  19.2354                   61.8466                   111.234                   71.2531                   90.7965                   120.0666                  86.3308                   54.6717                   27.7308                   97.4166                   24.7386                   149.3754                  145.6194                  69.0072                   12.8062                   159.8812                  89.7385                   135.0704                  124.3262                  156.7323                  131.8825                  98.1529                   99.0202                   104.0192                  84.4808                   95.3362                   8.544                     126.6689                  113.4637                  99999.0                   48.2597                   107.5639                  76.1577                   98.326                    151.819                   110.4762                  88.2836                   77.8781                   101.0198                  
38                        25.0799                   41.1096                   71.3092                   100.2247                  78.5175                   100.4988                  82.0                      58.2495                   64.1405                   98.1835                   25.4951                   104.0433                  123.13                    79.8123                   39.2173                   63.2456                   78.0577                   24.0208                   105.8017                  103.4795                  21.3776                   40.3113                   117.2902                  47.4342                   115.849                   96.1353                   110.9414                  90.5207                   50.01                     74.1485                   68.0955                   97.4166                   53.2541                   56.0357                   92.6607                   100.1249                  48.2597                   99999.0                   61.131                    29.0689                   51.6624                   109.3435                  108.2405                  40.2616                   30.4631                   63.8122                   
39                        85.1587                   35.2278                   35.4401                   139.2695                  106.4707                  85.3288                   104.3887                  119.3315                  116.211                   131.2288                  36.3456                   156.0833                  166.6433                  122.6744                  89.4036                   124.3262                  109.4166                  84.7231                   83.1685                   86.122                    39.8497                   101.2028                  95.5196                   22.8254                   138.5135                  110.6029                  78.3901                   79.2275                   27.8568                   100.1848                  79.0569                   149.9367                  20.5183                   115.849                   98.0051                   132.484                   107.5639                  61.131                    99999.0                   43.9318                   9.4868                    89.56                     149.4021                  32.8024                   41.7732                   74.3303                   
40                        53.1601                   13.0                      43.2897                   97.1288                   67.1863                   73.0                      67.4759                   83.006                    72.4224                   90.824                    24.1868                   112.1606                  123.7093                  79.404                    45.793                    86.2844                   68.9493                   51.4198                   77.3369                   75.6902                   17.72                     66.4831                   89.1403                   42.0595                   102.7035                  78.1601                   81.8841                   63.4114                   23.1948                   61.3922                   46.6905                   106.0424                  46.6154                   83.3607                   70.6045                   92.358                    76.1577                   29.0689                   43.9318                   99999.0                   35.3836                   81.3204                   106.8504                  13.3417                   2.2361                    41.7732                   
41                        75.8024                   28.2312                   36.3593                   131.7649                  99.8098                   84.4808                   98.3514                   109.8818                  107.2986                  124.3262                  27.074                    147.3228                  158.8081                  114.6342                  80.4301                   114.8434                  102.4207                  75.3127                   83.672                    85.703                    30.3645                   91.7824                   96.1769                   17.8045                   132.9662                  105.7213                  80.8022                   77.4661                   23.0217                   93.6216                   73.7564                   141.1134                  18.0278                   106.5692                  94.1329                   125.6742                  98.326                    51.6624                   9.4868                    35.3836                   99999.0                   89.6939                   141.7357                  25.4951                   33.3017                   68.884                    
42                        130.6331                  72.6223                   54.1202                   108.6692                  75.4255                   10.198                    66.7533                   152.4631                  117.9576                  94.255                    101.4002                  144.7791                  135.6798                  105.2331                  102.4597                  152.4336                  81.3941                   128.1601                  7.0711                    6.3246                    97.1854                   140.0036                  8.0623                    106.9299                  83.2166                   57.0088                   22.8035                   20.2485                   69.4622                   71.0634                   51.1957                   141.2869                  107.7033                  157.4293                  40.5216                   93.9202                   151.819                   109.3435                  89.56                     81.3204                   89.6939                   99999.0                   118.9622                  75.0                      80.6226                   52.4976                   
43                        106.1179                  114.2016                  131.1373                  10.8167                   46.8722                   110.0545                  53.6656                   95.8801                   49.0918                   24.7386                   126.6254                  35.5106                   17.8045                   28.4605                   69.1231                   89.1964                   42.0119                   103.1746                  122.0901                  113.842                   119.4362                  99.5038                   124.6635                  148.0608                  45.3542                   62.3699                   138.1593                  103.4698                  122.7884                  53.0094                   78.2368                   36.7967                   153.0751                  109.1421                  78.4474                   25.318                    110.4762                  108.2405                  149.4021                  106.8504                  141.7357                  118.9622                  99999.0                   116.6062                  108.7566                  81.2158                   
44                        65.1153                   3.0                       31.0483                   106.5082                  74.3236                   67.7422                   73.0821                   96.0208                   84.9058                   98.8383                   26.4008                   124.2014                  133.8432                  89.9389                   58.5918                   99.5038                   76.9415                   63.6396                   70.1783                   69.8928                   22.8035                   79.1581                   82.4621                   37.0                      107.9352                  81.3941                   72.4224                   59.0339                   10.0                      68.1542                   49.2544                   118.2244                  40.3113                   95.7549                   71.2531                   100.1798                  88.2836                   40.2616                   32.8024                   13.3417                   25.4951                   75.0                      116.6062                  99999.0                   11.1803                   44.2832                   
45                        54.8179                   11.0454                   41.4367                   98.9798                   68.6804                   72.4707                   68.7314                   85.0                      74.6324                   92.477                    23.5372                   114.3372                  125.6702                  81.4002                   48.0208                   88.3629                   70.5762                   53.1507                   76.4853                   75.0733                   17.4642                   68.3593                   88.3912                   40.5216                   103.9471                  79.0569                   80.6226                   63.0079                   21.095                    62.8172                   47.3814                   108.2312                  44.9444                   85.1587                   71.0634                   93.984                    77.8781                   30.4631                   41.7732                   2.2361                    33.3017                   80.6226                   108.7566                  11.1803                   99999.0                   42.4264                   
46                        81.3449                   41.3038                   50.2096                   70.4344                   34.6554                   42.3792                   30.5287                   100.2247                  67.0075                   59.4643                   65.9242                   98.9798                   99.0202                   59.6154                   49.98                     99.96                     39.2046                   78.5684                   51.788                    46.1736                   59.439                    88.7525                   60.407                    81.1542                   64.195                    37.1214                   64.0312                   32.28                     46.4866                   28.3196                   5.0                       94.3716                   84.5931                   106.0                     29.1548                   60.3075                   101.0198                  63.8122                   74.3303                   41.7732                   68.884                    52.4976                   81.2158                   44.2832                   42.4264                   99999.0                   
;
SCALAR TOTAL  /46/;
SCALAR NODES  /40/;
SCALAR W  /2/;
SCALAR Y  /92/;
SCALAR M  /1/;
BINARY VARIABLE X(I,J,K)  x variable ;
INTEGER VARIABLE U(K,O)    u variable ;
VARIABLE   Z         objective ;
EQUATIONS
CON1(K)   constraint 1
CON2(K)   constraint 2
CON3   constraint 3
CON4(O)   constraint 4
CON5(O,K)   constraint 5
CON6(O,K)   constraint 6
CON7(K)   constraint 7
CON10(O,P,K)   constraint 10
CON11(O,K)   constraint 11;
CON1(K).. SUM(O,X(K,O,K)) =E= 1;
CON2(K).. SUM(O,X(O,K,K)) =E= 1;
CON3..  SUM((K,L),X(K,L,K)) =E= 0;
CON4(O) .. SUM(K,X(K,O,K)) + SUM((P,K),X(P,O,K)) =e= W;
CON5(O,K) .. X(K,O,K) + SUM(P,X(P,O,K)) =L= 1;
CON6(O,K) .. X(K,O,K) + SUM(P,X(P,O,K)) - X(O,K,K) - SUM(P,X(O,P,K)) =e= 0;
CON7(K) .. Z =G= SUM(O,C(K,O)*X(K,O,K) + C(O,K)*X(O,K,K)) + SUM((P,O),C(P,O)*X(P,O,K));
CON10(O,P,K) .. U(K,O) - U(K,P) + (TOTAL-1)*X(O,P,K) + (TOTAL-3)*X(P,O,K) =L= (TOTAL-2);
CON11(O,K) .. X(O,O,K) =e= 0;
MODEL TRANSPORT /ALL/;
Option Reslim = 28800;
SOLVE TRANSPORT USING MIP MINIMIZING Z ;
