SET
I  first /1*56/
K(I)  depot1 /1*6/
O(I)  node1 /7*56/
alias(I,J);
alias(K,L);
alias(O,P);
TABLE C(I,J)  node to node
                          1                         2                         3                         4                         5                         6                         7                         8                         9                         10                        11                        12                        13                        14                        15                        16                        17                        18                        19                        20                        21                        22                        23                        24                        25                        26                        27                        28                        29                        30                        31                        32                        33                        34                        35                        36                        37                        38                        39                        40                        41                        42                        43                        44                        45                        46                        47                        48                        49                        50                        51                        52                        53                        54                        55                        56                        
1                         99999.0                   99999.0                   99999.0                   99999.0                   99999.0                   99999.0                   100.896                   44.6542                   32.9848                   47.8017                   16.1245                   106.0                     46.1411                   122.6907                  55.6597                   13.6015                   108.074                   102.1078                  100.1249                  34.3657                   26.0768                   108.3421                  109.1146                  97.7446                   84.1487                   103.0                     39.6989                   81.5843                   100.8067                  69.0797                   111.252                   105.9906                  14.4222                   102.1763                  137.3536                  118.5116                  75.1864                   39.6989                   101.1237                  123.4342                  95.1893                   78.1025                   79.0759                   95.3415                   31.0644                   44.1022                   85.44                     145.2446                  81.3019                   18.2483                   79.4292                   102.7716                  95.4149                   52.345                    108.3005                  32.2025                   
2                         99999.0                   99999.0                   99999.0                   99999.0                   99999.0                   99999.0                   63.0                      28.7924                   96.2549                   29.5296                   50.4876                   111.252                   48.0208                   64.405                    11.1803                   66.2118                   110.6752                  98.9798                   103.4698                  100.02                    41.6293                   43.0465                   49.2443                   89.8944                   22.3607                   108.8118                  35.7351                   80.8022                   95.2943                   102.4744                  55.9464                   40.2616                   76.896                    111.6647                  75.8222                   59.9333                   9.4868                    53.2635                   110.2588                  71.5891                   92.9624                   76.4003                   81.0555                   76.2168                   95.8853                   23.3238                   110.6029                  102.3572                  87.2067                   49.3964                   14.0                      97.0618                   66.0984                   24.1868                   60.1664                   97.4166                   
3                         99999.0                   99999.0                   99999.0                   99999.0                   99999.0                   99999.0                   65.2993                   57.2189                   126.5701                  56.7186                   80.895                    127.4049                  73.7631                   43.2782                   41.1096                   95.8593                   125.873                   113.1459                  119.6704                  130.4186                  71.4703                   13.3417                   29.1548                   103.2763                  18.0278                   125.3994                  64.2806                   98.4073                   108.9312                  127.8124                  44.1022                   10.2956                   106.9018                  129.3213                  52.4786                   39.2046                   21.095                    78.8162                   127.914                   60.0                      108.2451                  94.4034                   99.6243                   86.6833                   126.2894                  52.811                    133.2967                  94.0851                   106.2544                  79.404                    16.7631                   110.3902                  73.2393                   49.3964                   54.8179                   127.6127                  
4                         99999.0                   99999.0                   99999.0                   99999.0                   99999.0                   99999.0                   63.9062                   81.939                    98.7927                   78.721                    92.5419                   7.2111                    62.9365                   163.3799                  96.3846                   113.0                     8.0                       11.0454                   1.0                       111.6647                  104.3456                  132.28                    148.4924                  19.6469                   124.1974                  5.0                       78.4347                   23.3238                   15.0333                   46.8615                   94.1541                   124.2014                  112.641                   10.198                    122.1229                  159.1132                  107.1681                  128.6546                  9.0554                    92.1954                   12.53                     27.7849                   23.7697                   37.3363                   104.0625                  104.9238                  33.2866                   87.1321                   19.2354                   103.9471                  112.6987                  15.0333                   52.0                      116.3615                  80.6536                   118.6802                  
5                         99999.0                   99999.0                   99999.0                   99999.0                   99999.0                   99999.0                   30.0666                   55.0818                   97.6729                   51.1566                   74.7262                   42.8019                   41.4849                   128.0352                  65.8027                   97.719                    41.0366                   28.3196                   35.2278                   108.8531                  82.3893                   96.4261                   113.3578                  18.6011                   90.1388                   41.0488                   54.1479                   18.0                      24.2074                   62.0967                   59.203                    88.2383                   101.1336                  45.6508                   88.2836                   123.8426                  73.2462                   106.0754                  44.2945                   60.0                      23.6008                   16.4924                   21.095                    8.6023                    101.5332                  77.6466                   58.0345                   65.5134                   27.0185                   84.5281                   78.492                    25.807                    18.0                      87.8635                   46.5296                   113.1592                  
6                         99999.0                   99999.0                   99999.0                   99999.0                   99999.0                   99999.0                   35.9026                   76.6094                   144.931                   73.4983                   105.2093                  105.3423                  81.7068                   86.1278                   70.1783                   126.1507                  102.3181                  89.5377                   98.6712                   152.6892                  102.5329                  53.6004                   75.6637                   80.0062                   66.7083                   104.3552                  81.8352                   83.6002                   85.0941                   125.1439                  10.0                      45.1774                   134.8073                  109.7679                  22.561                    83.1986                   58.1378                   118.2244                  108.5219                  11.1803                   87.3613                   81.2219                   86.3713                   62.3618                   146.7106                  86.6833                   123.584                   44.911                    92.6553                   109.0413                  58.8727                   85.7963                   48.0521                   89.3588                   19.2354                   153.1013                  
7                         100.896                   63.0                      65.2993                   63.9062                   30.0666                   35.9026                   99999.0                   59.4811                   118.8108                  55.4707                   86.0233                   69.857                    55.9017                   107.912                   61.9839                   109.0                     67.082                    54.1295                   62.9682                   128.4251                  88.5664                   74.6324                   94.414                    44.3847                   75.6902                   68.7095                   62.1289                   48.0416                   49.6588                   91.0824                   30.4138                   65.8027                   115.2562                  74.0                      58.4637                   104.1009                  60.6712                   109.4166                  72.7324                   30.0666                   51.5461                   46.0435                   51.0                      26.5707                   121.6594                  77.6209                   88.0909                   44.4072                   57.0789                   93.1504                   64.5368                   50.5371                   12.1655                   84.8528                   16.7631                   130.8167                  
8                         44.6542                   28.7924                   57.2189                   81.939                    55.0818                   76.6094                   59.4811                   99999.0                   71.0634                   4.1231                    28.6007                   89.0505                   20.5183                   93.1075                   17.8885                   50.3289                   89.3197                   79.1202                   81.5414                   77.0779                   29.1548                   70.4557                   78.0                      71.3863                   51.0784                   86.3308                   7.0711                    58.8727                   76.1577                   74.0945                   66.6108                   66.0                      58.258                    88.193                    93.0376                   88.6397                   36.6742                   51.4782                   86.8332                   79.2086                   72.4224                   54.4243                   58.1808                   62.0322                   71.7844                   23.0868                   83.4865                   103.5857                  63.5295                   33.8378                   42.2019                   78.1025                   57.0088                   34.4384                   64.4438                   76.6616                   
9                         32.9848                   96.2549                   126.5701                  98.7927                   97.6729                   144.931                   118.8108                  71.0634                   99999.0                   73.0821                   46.0                      103.0922                  63.6318                   155.4252                  85.4751                   41.6773                   106.2826                  104.2017                  99.1615                   13.1529                   58.8558                   139.2911                  141.598                   102.9272                  116.0388                  100.2447                  64.56                     86.5332                   104.3168                  56.3205                   135.1481                  136.0662                  31.241                    97.5295                   163.2728                  151.1985                  105.4751                  70.7107                   96.8401                   145.1206                  98.0051                   84.4038                   83.2166                   106.2168                  6.0828                    76.1643                   74.4312                   161.6168                  82.7647                   51.1957                   110.2225                  106.066                   110.6345                  85.1587                   129.4952                  22.2036                   
10                        47.8017                   29.5296                   56.7186                   78.721                    51.1566                   73.4983                   55.4707                   4.1231                    73.0821                   99999.0                   31.8904                   85.8662                   18.6011                   93.9149                   19.2094                   54.037                    86.0058                   75.5844                   78.2943                   79.6241                   33.2415                   70.0357                   78.721                    67.6831                   51.8845                   83.1865                   8.544                     55.5428                   72.5328                   72.9452                   63.5138                   65.123                    61.6198                   85.235                    90.471                    89.4427                   36.6879                   55.5788                   83.863                    75.743                    68.9493                   51.0784                   55.0091                   58.0086                   74.0945                   26.6833                   81.5659                   99.6444                   60.5392                   37.7359                   42.3792                   74.4648                   52.8867                   37.6962                   60.8276                   79.6116                   
11                        16.1245                   50.4876                   80.895                    92.5419                   74.7262                   105.2093                  86.0233                   28.6007                   46.0                      31.8904                   99999.0                   98.9949                   33.2415                   110.0227                  40.025                    23.2594                   100.4988                  93.0054                   92.4392                   49.7293                   15.6205                   93.4345                   95.8853                   87.4643                   70.0643                   96.026                    24.0832                   72.0278                   91.1373                   68.8186                   95.2103                   90.6091                   29.7321                   96.1041                   121.2353                  105.7213                  59.8415                   37.5766                   94.921                    107.629                   86.0058                   68.1175                   70.0071                   82.8613                   45.3982                   30.4138                   83.1865                   130.4301                  73.3348                   11.7047                   64.3817                   93.1343                   81.4125                   40.4969                   92.6337                   48.3011                   
12                        106.0                     111.252                   127.4049                  7.2111                    42.8019                   105.3423                  69.857                    89.0505                   103.0922                  85.8662                   98.9949                   99999.0                   69.8928                   170.4259                  103.5857                  119.0672                  4.4721                    15.8114                   7.8102                    116.0905                  111.0856                  139.1761                  155.5699                  25.4951                   131.3659                  3.0                       85.44                     30.5287                   20.2485                   49.3964                   100.2247                  131.0343                  118.2709                  7.2111                    127.7576                  166.1716                  114.3372                  135.3662                  7.0711                    97.5295                   19.2094                   34.9857                   30.8707                   43.382                    108.5219                  112.0045                  33.9411                   90.3549                   25.9615                   110.4762                  119.8541                  19.6469                   58.1378                   123.4828                  86.539                    123.4544                  
13                        46.1411                   48.0208                   73.7631                   62.9365                   41.4849                   81.7068                   55.9017                   20.5183                   63.6318                   18.6011                   33.2415                   69.8928                   99999.0                   112.2943                  37.8021                   56.3028                   70.6045                   61.5224                   62.6418                   72.6223                   42.107                    87.0919                   97.0618                   55.0                      70.3278                   67.0671                   15.6525                   40.6079                   59.1354                   54.5619                   72.111                    81.3941                   60.5392                   68.4471                   101.1385                  107.8239                  54.626                    66.3702                   67.1193                   81.4923                   54.5894                   36.3456                   39.2938                   49.6488                   66.0303                   42.5441                   63.0317                   99.8248                   44.0114                   43.2897                   60.4152                   61.131                    49.4065                   54.3783                   65.8635                   74.9667                   
14                        122.6907                  64.405                    43.2782                   163.3799                  128.0352                  86.1278                   107.912                   93.1075                   155.4252                  93.9149                   110.0227                  170.4259                  112.2943                  99999.0                   75.2396                   118.0                     169.0118                  156.349                   162.6592                  156.205                   96.6282                   33.541                    15.2643                   146.5094                  42.0476                   168.3449                  99.925                    141.0142                  152.1611                  166.8323                  83.006                    42.4853                   130.0038                  172.0727                  78.0064                   4.4721                    57.9828                   92.9139                   170.6605                  97.1236                   151.3209                  136.8832                  141.993                   129.9577                  153.7335                  79.6241                   174.1867                  130.9695                  148.5295                  104.4797                  52.1536                   153.6392                  116.4002                  70.3491                   95.7079                   151.0033                  
15                        55.6597                   11.1803                   41.1096                   96.3846                   65.8027                   70.1783                   61.9839                   17.8885                   85.4751                   19.2094                   40.025                    103.5857                  37.8021                   75.2396                   99999.0                   57.4543                   103.3538                  92.1954                   95.8801                   89.7385                   33.0151                   54.0                      60.1664                   83.5703                   33.2415                   101.0198                  24.6982                   73.0616                   88.7694                   91.9239                   60.4401                   50.636                    67.5426                   103.4698                  83.2346                   70.7743                   20.025                    48.7647                   102.0784                  75.1665                   85.8662                   68.6003                   72.9452                   71.3863                   85.3288                   16.6433                   100.7671                  103.8171                  78.8162                   40.3113                   25.0799                   90.6201                   63.0079                   23.0217                   62.1691                   87.6641                   
16                        13.6015                   66.2118                   95.8593                   113.0                     97.719                    126.1507                  109.0                     50.3289                   41.6773                   54.037                    23.2594                   119.0672                  56.3028                   118.0                     57.4543                   99999.0                   121.0                     114.5295                  113.0044                  38.833                    24.5967                   107.28                    105.3043                  109.6586                  82.0                      116.0689                  46.8722                   93.771                    113.0                     82.6378                   116.1809                  106.0424                  12.0416                   115.434                   140.6165                  114.0175                  75.6439                   29.0689                   114.3547                  129.4179                  107.5639                  90.0944                   91.444                    105.9481                  38.0789                   43.0813                   99.0404                   153.3786                  94.0479                   17.2047                   79.1202                   114.9826                  104.6566                  48.5077                   114.7693                  33.0151                   
17                        108.074                   110.6752                  125.873                   8.0                       41.0366                   102.3181                  67.082                    89.3197                   106.2826                  86.0058                   100.4988                  4.4721                    70.6045                   169.0118                  103.3538                  121.0                     99999.0                   13.0384                   8.0623                    119.2183                  112.1784                  137.4409                  154.253                   23.0217                   130.4186                  6.4031                    86.0233                   30.4631                   17.4929                   53.2541                   97.4936                   129.1898                  120.5985                  11.6619                   124.6515                  164.7938                  113.4063                  136.4991                  11.4018                   94.255                    17.8045                   34.9285                   31.3209                   40.8167                   111.6288                  112.361                   38.2099                   86.209                    27.1662                   111.8794                  118.8486                  16.5529                   55.5698                   123.6932                  83.672                    126.3843                  
18                        102.1078                  98.9798                   113.1459                  11.0454                   28.3196                   89.5377                   54.1295                   79.1202                   104.2017                  75.5844                   93.0054                   15.8114                   61.5224                   156.349                   92.1954                   114.5295                  13.0384                   99999.0                   10.0499                   116.7776                  103.5857                  124.5793                  141.6757                  10.0                      118.2244                  15.1327                   76.4853                   21.0238                   4.4721                    55.2268                   84.5281                   116.2755                  115.317                   21.0238                   111.9464                  152.1611                  101.2571                  127.8828                  20.0                      81.7435                   7.0                       25.1794                   23.0868                   27.7849                   109.165                   102.2008                  43.382                    76.1183                   21.5407                   104.0433                  106.6068                  4.0                       42.5441                   113.2166                  70.7743                   123.13                    
19                        100.1249                  103.4698                  119.6704                  1.0                       35.2278                   98.6712                   62.9682                   81.5414                   99.1615                   78.2943                   92.4392                   7.8102                    62.6418                   162.6592                  95.8801                   113.0044                  8.0623                    10.0499                   99999.0                   112.0089                  104.1393                  131.5029                  147.787                   18.6815                   123.5557                  5.831                     78.1089                   22.8254                   14.0357                   47.5079                   93.2309                   123.4058                  112.7519                  11.1803                   121.1652                  158.3982                  106.527                   128.4562                  10.0499                   91.2195                   11.6619                   27.2947                   23.4094                   36.4005                   104.4031                  104.5466                  34.1321                   86.1452                   19.105                    103.8171                  112.0446                  14.0357                   51.0784                   115.9526                  79.712                    118.9622                  
20                        34.3657                   100.02                    130.4186                  111.6647                  108.8531                  152.6892                  128.4251                  77.0779                   13.1529                   79.6241                   49.7293                   116.0905                  72.6223                   156.205                   89.7385                   38.833                    119.2183                  116.7776                  112.0089                  99999.0                   60.075                    142.706                   143.0                     115.1043                  118.423                   113.2254                  71.1126                   98.6154                   116.7262                  69.4622                   142.7796                  140.2462                  26.9258                   110.6029                  170.0735                  152.1184                  109.444                   67.3573                   109.8954                  153.6522                  110.4627                  96.2549                   95.3834                   117.4436                  7.6158                    78.4092                   87.5728                   171.8633                  95.2733                   52.0384                   113.7717                  118.5116                  120.9173                  86.0058                   138.1304                  10.2956                   
21                        26.0768                   41.6293                   71.4703                   104.3456                  82.3893                   102.5329                  88.5664                   29.1548                   58.8558                   33.2415                   15.6205                   111.0856                  42.107                    96.6282                   33.0151                   24.5967                   112.1784                  103.5857                  104.1393                  60.075                    99999.0                   83.1986                   83.0542                   97.0464                   58.4209                   108.1712                  28.2843                   82.6075                   101.2423                  84.0238                   92.6337                   81.5966                   35.4401                   108.8118                  116.2497                  92.4392                   51.0784                   24.3311                   107.5639                  106.527                   96.6282                   78.4092                   81.0494                   89.9444                   57.1402                   18.6815                   97.7548                   132.484                   85.1469                   8.0623                    54.7083                   103.2376                  86.0233                   26.3059                   92.4175                   56.2939                   
22                        108.3421                  43.0465                   13.3417                   132.28                    96.4261                   53.6004                   74.6324                   70.4557                   139.2911                  70.0357                   93.4345                   139.1761                  87.0919                   33.541                    54.0                      107.28                    137.4409                  124.5793                  131.5029                  142.706                   83.1986                   99999.0                   22.0907                   114.6298                  25.9422                   137.2771                  77.5242                   110.6797                  120.283                   141.0603                  49.6488                   8.9443                    118.6002                  141.4001                  50.0                      30.0832                   34.0147                   88.193                    140.0                     64.3273                   119.9708                  106.7801                  112.058                   97.591                    138.8128                  64.5368                   146.2395                  98.4784                   118.7266                  91.2195                   29.0689                   121.6553                  83.6301                   59.6154                   62.1691                   139.4884                  
23                        109.1146                  49.2443                   29.1548                   148.4924                  113.3578                  75.6637                   94.414                    78.0                      141.598                   78.721                    95.8853                   155.5699                  97.0618                   15.2643                   60.1664                   105.3043                  154.253                   141.6757                  147.787                   143.0                     83.0542                   22.0907                   99999.0                   131.8939                  26.9258                   153.4438                  84.8646                   125.9921                  137.5354                  151.6113                  71.3092                   30.5941                   117.2092                  157.0796                  71.0211                   10.8167                   42.72                     81.7435                   155.6663                  86.3134                   136.5174                  121.8277                  126.9055                  115.6028                  140.1749                  65.4905                   158.9277                  120.5073                  133.4166                  91.022                    36.8917                   139.0539                  102.3426                  57.0088                   83.2166                   138.2932                  
24                        97.7446                   89.8944                   103.2763                  19.6469                   18.6011                   80.0062                   44.3847                   71.3863                   102.9272                  67.6831                   87.4643                   25.4951                   55.0                      146.5094                  83.5703                   109.6586                  23.0217                   10.0                      18.6815                   115.1043                  97.0464                   114.6298                  131.8939                  99999.0                   108.7244                  24.3516                   69.3542                   16.5529                   5.6569                    57.9828                   74.7329                   106.3015                  111.4002                  29.8329                   102.489                   142.3411                  91.8096                   121.2023                  28.6356                   72.5672                   8.0623                    19.6469                   19.7231                   17.8885                   107.5407                  94.3663                   48.7647                   69.6419                   21.2603                   98.1275                   97.0824                   7.2111                    32.6497                   105.0809                  61.0983                   120.7684                  
25                        84.1487                   22.3607                   18.0278                   124.1974                  90.1388                   66.7083                   75.6902                   51.0784                   116.0388                  51.8845                   70.0643                   131.3659                  70.3278                   42.0476                   33.2415                   82.0                      130.4186                  118.2244                  123.5557                  118.423                   58.4209                   25.9422                   26.9258                   108.7244                  99999.0                   129.0736                  57.9396                   101.2373                  114.2847                  124.8239                  59.4138                   27.5862                   93.5575                   132.3216                  70.4911                   37.5766                   17.0294                   62.2656                   130.9084                  75.6637                   112.6144                  96.9381                   101.8332                  93.5361                   115.0391                  40.05                     132.6386                  109.165                   108.1896                  66.4831                   11.6619                   115.9353                  81.5414                   33.8378                   68.1175                   114.5862                  
26                        103.0                     108.8118                  125.3994                  5.0                       41.0488                   104.3552                  68.7095                   86.3308                   100.2447                  83.1865                   96.026                    3.0                       67.0671                   168.3449                  101.0198                  116.0689                  6.4031                    15.1327                   5.831                     113.2254                  108.1712                  137.2771                  153.4438                  24.3516                   129.0736                  99999.0                   82.6378                   28.0179                   19.4165                   46.8722                   99.0051                   129.2014                  115.2779                  6.0828                    126.8267                  164.0732                  112.0446                  132.4424                  5.3852                    96.7729                   17.4929                   32.45                     28.178                    42.1545                   105.6504                  109.252                   31.8904                   90.6697                   23.0868                   107.5174                  117.5925                  19.105                    56.8595                   120.7684                  85.44                     120.5404                  
27                        39.6989                   35.7351                   64.2806                   78.4347                   54.1479                   81.8352                   62.1289                   7.0711                    64.56                     8.544                     24.0832                   85.44                     15.6525                   99.925                    24.6982                   46.8722                   86.0233                   76.4853                   78.1089                   71.1126                   28.2843                   77.5242                   84.8646                   69.3542                   57.9396                   82.6378                   99999.0                   55.7853                   73.8241                   67.6757                   71.8679                   73.0068                   53.7401                   84.0952                   99.0051                   95.462                    43.7379                   52.0                      82.7647                   83.7377                   69.6348                   51.4198                   54.7083                   61.6604                   65.5515                   26.9258                   77.7946                   106.5082                  59.6154                   31.3847                   49.2443                   75.8024                   58.3095                   38.833                    68.6222                   71.2811                   
28                        81.5843                   80.8022                   98.4073                   23.3238                   18.0                      83.6002                   48.0416                   58.8727                   86.5332                   55.5428                   72.0278                   30.5287                   40.6079                   141.0142                  73.0616                   93.771                    30.4631                   21.0238                   22.8254                   98.6154                   82.6075                   110.6797                  125.9921                  16.5529                   101.2373                  28.0179                   55.7853                   99999.0                   19.2354                   44.9444                   76.6877                   102.9272                  95.0789                   31.1127                   106.066                   136.6931                  84.22                     106.9205                  29.6985                   78.0                      14.0357                   4.4721                    3.6056                    24.0416                   91.0659                   81.9329                   40.05                     81.4371                   9.0554                    83.0241                   89.8276                   21.2132                   36.0                      93.2309                   64.3817                   104.2161                  
29                        100.8067                  95.2943                   108.9312                  15.0333                   24.2074                   85.0941                   49.6588                   76.1577                   104.3168                  72.5328                   91.1373                   20.2485                   59.1354                   152.1611                  88.7694                   113.0                     17.4929                   4.4721                    14.0357                   116.7262                  101.2423                  120.283                   137.5354                  5.6569                    114.2847                  19.4165                   73.8241                   19.2354                   99999.0                   57.0088                   80.0562                   111.9464                  114.2366                  25.1794                   107.5174                  147.9899                  97.3499                   125.4831                  24.0832                   77.3692                   6.4031                    23.0217                   21.8403                   23.3238                   109.1284                  99.2018                   46.2385                   72.5672                   21.6333                   102.0049                  102.6499                  2.0                       38.0789                   110.0636                  66.3099                   122.7721                  
30                        69.0797                   102.4744                  127.8124                  46.8615                   62.0967                   125.1439                  91.0824                   74.0945                   56.3205                   72.9452                   68.8186                   49.3964                   54.5619                   166.8323                  91.9239                   82.6378                   53.2541                   55.2268                   47.5079                   69.4622                   84.0238                   141.0603                  151.6113                  57.9828                   124.8239                  46.8722                   67.6757                   44.9444                   57.0088                   99999.0                   117.0                     134.7665                  78.1025                   42.9418                   147.0034                  162.3607                  109.165                   106.0                     42.5441                   121.062                   50.8035                   45.607                    41.4367                   68.9493                   62.2013                   92.8493                   18.1108                   126.3171                  37.1214                   80.1561                   114.9652                  58.258                    79.6241                   104.8046                  106.3814                  78.0577                   
31                        111.252                   55.9464                   44.1022                   94.1541                   59.203                    10.0                      30.4138                   66.6108                   135.1481                  63.5138                   95.2103                   100.2247                  72.111                    83.006                    60.4401                   116.1809                  97.4936                   84.5281                   93.2309                   142.7796                  92.6337                   49.6488                   71.3092                   74.7329                   59.4138                   99.0051                   71.8679                   76.6877                   80.0562                   117.0                     99999.0                   40.8044                   124.8079                  104.1777                  30.0167                   79.712                    49.3964                   108.7244                  102.8834                  16.2788                   81.7068                   73.9797                   79.2465                   56.8595                   136.8503                  77.0065                   116.4002                  50.01                     85.703                    99.0858                   50.6952                   80.9506                   42.1545                   80.1311                   14.2127                   143.1223                  
32                        105.9906                  40.2616                   10.2956                   124.2014                  88.2383                   45.1774                   65.8027                   66.0                      136.0662                  65.123                    90.6091                   131.0343                  81.3941                   42.4853                   50.636                    106.0424                  129.1898                  116.2755                  123.4058                  140.2462                  81.5966                   8.9443                    30.5941                   106.3015                  27.5862                   129.2014                  73.0068                   102.9272                  111.9464                  134.7665                  40.8044                   99999.0                   117.0043                  133.4541                  43.8634                   39.0                      30.8058                   89.0505                   132.0606                  55.7315                   111.8258                  99.1262                   104.4462                  89.1067                   135.9596                  62.9682                   139.2049                  89.9444                   111.1396                  89.493                    26.9258                   113.2784                  75.0067                   59.6825                   53.2259                   137.6408                  
33                        14.4222                   76.896                    106.9018                  112.641                   101.1336                  134.8073                  115.2562                  58.258                    31.241                    61.6198                   29.7321                   118.2709                  60.5392                   130.0038                  67.5426                   12.0416                   120.5985                  115.317                   112.7519                  26.9258                   35.4401                   118.6002                  117.2092                  111.4002                  93.5575                   115.2779                  53.7401                   95.0789                   114.2366                  78.1025                   124.8079                  117.0043                  99999.0                   114.0175                  150.2332                  126.004                   86.3771                   40.4969                   113.0398                  137.3608                  108.4666                  91.7606                   92.4175                   109.5901                  26.9258                   54.1202                   95.352                    159.6246                  94.2019                   27.5136                   90.1388                   116.1809                  109.8362                  60.2993                   122.3479                  21.095                    
34                        102.1763                  111.6647                  129.3213                  10.198                    45.6508                   109.7679                  74.0                      88.193                    97.5295                   85.235                    96.1041                   7.2111                    68.4471                   172.0727                  103.4698                  115.434                   11.6619                   21.0238                   11.1803                   110.6029                  108.8118                  141.4001                  157.0796                  29.8329                   132.3216                  6.0828                    84.0952                   31.1127                   25.1794                   42.9418                   104.1777                  133.4541                  114.0175                  99999.0                   132.28                    167.7647                  115.3126                  132.9662                  1.4142                    102.3914                  22.4722                   35.3836                   30.6105                   47.4342                   103.0776                  110.9099                  26.9072                   96.7471                   24.6982                   107.7079                  120.9339                  25.02                     62.0322                   122.5887                  90.7579                   118.2582                  
35                        137.3536                  75.8222                   52.4786                   122.1229                  88.2836                   22.561                    58.4637                   93.0376                   163.2728                  90.471                    121.2353                  127.7576                  101.1385                  78.0064                   83.2346                   140.6165                  124.6515                  111.9464                  121.1652                  170.0735                  116.2497                  50.0                      71.0211                   102.489                   70.4911                   126.8267                  99.0051                   106.066                   107.5174                  147.0034                  30.0167                   43.8634                   150.2332                  132.28                    99999.0                   76.0592                   67.1789                   128.6934                  131.042                   30.8869                   109.8954                  103.5857                  108.7796                  84.8999                   164.5387                  98.8585                   145.9932                  57.9828                   115.1173                  123.422                   65.9469                   108.1665                  70.6116                   99.0051                   41.7732                   169.5317                  
36                        118.5116                  59.9333                   39.2046                   159.1132                  123.8426                  83.1986                   104.1009                  88.6397                   151.1985                  89.4427                   105.7213                  166.1716                  107.8239                  4.4721                    70.7743                   114.0175                  164.7938                  152.1611                  158.3982                  152.1184                  92.4392                   30.0832                   10.8167                   142.3411                  37.5766                   164.0732                  95.462                    136.6931                  147.9899                  162.3607                  79.712                    39.0                      126.004                   167.7647                  76.0592                   99999.0                   53.535                    89.2693                   166.352                   94.1116                   147.085                   132.5481                  137.6445                  125.8769                  149.566                   75.3127                   169.7439                  128.0976                  144.17                    100.3195                  47.7074                   149.4824                  112.4144                  66.1891                   92.1954                   147.0306                  
37                        75.1864                   9.4868                    21.095                    107.1681                  73.2462                   58.1378                   60.6712                   36.6742                   105.4751                  36.6879                   59.8415                   114.3372                  54.626                    57.9828                   20.025                    75.6439                   113.4063                  101.2571                  106.527                   109.444                   51.0784                   34.0147                   42.72                     91.8096                   17.0294                   112.0446                  43.7379                   84.22                     97.3499                   109.165                   49.3964                   30.8058                   86.3771                   115.3126                  67.1789                   53.535                    99999.0                   61.5224                   113.8991                  65.4599                   95.6033                   79.9312                   84.8528                   76.922                    105.2236                  32.6497                   116.211                   97.4936                   91.2414                   58.8727                   5.831                     99.0202                   65.4599                   31.8904                   55.4437                   106.9018                  
38                        39.6989                   53.2635                   78.8162                   128.6546                  106.0754                  118.2244                  109.4166                  51.4782                   70.7107                   55.5788                   37.5766                   135.3662                  66.3702                   92.9139                   48.7647                   29.0689                   136.4991                  127.8828                  128.4562                  67.3573                   24.3311                   88.193                    81.7435                   121.2023                  62.2656                   132.4424                  52.0                      106.9205                  125.4831                  106.0                     108.7244                  89.0505                   40.4969                   132.9662                  128.6934                  89.2693                   61.5224                   99999.0                   131.7346                  123.8225                  120.9339                  102.7035                  105.3803                  113.3578                  67.1193                   32.2025                   120.7477                  152.3155                  109.444                   25.9422                   63.1269                   127.4755                  108.2589                  29.7321                   110.9099                  60.208                    
39                        101.1237                  110.2588                  127.914                   9.0554                    44.2945                   108.5219                  72.7324                   86.8332                   96.8401                   83.863                    94.921                    7.0711                    67.1193                   170.6605                  102.0784                  114.3547                  11.4018                   20.0                      10.0499                   109.8954                  107.5639                  140.0                     155.6663                  28.6356                   130.9084                  5.3852                    82.7647                   29.6985                   24.0832                   42.5441                   102.8834                  132.0606                  113.0398                  1.4142                    131.042                   166.352                   113.8991                  131.7346                  99999.0                   101.2028                  21.1896                   33.9706                   29.2062                   46.1736                   102.3572                  109.5673                  26.8701                   95.8853                   23.3238                   106.5129                  119.5199                  24.0                      60.7454                   121.2353                  89.493                    117.4777                  
40                        123.4342                  71.5891                   60.0                      92.1954                   60.0                      11.1803                   30.0666                   79.2086                   145.1206                  75.743                    107.629                   97.5295                   81.4923                   97.1236                   75.1665                   129.4179                  94.255                    81.7435                   91.2195                   153.6522                  106.527                   64.3273                   86.3134                   72.5672                   75.6637                   96.7729                   83.7377                   78.0                      77.3692                   121.062                   16.2788                   55.7315                   137.3608                  102.3914                  30.8869                   94.1116                   65.4599                   123.8225                  101.2028                  99999.0                   80.2309                   76.1052                   81.0247                   55.4437                   147.3397                  91.8096                   118.0169                  34.2345                   87.0057                   112.5389                  66.9403                   77.8845                   42.0                      95.7079                   15.6525                   154.8063                  
41                        95.1893                   92.9624                   108.2451                  12.53                     23.6008                   87.3613                   51.5461                   72.4224                   98.0051                   68.9493                   86.0058                   19.2094                   54.5894                   151.3209                  85.8662                   107.5639                  17.8045                   7.0                       11.6619                   110.4627                  96.6282                   119.9708                  136.5174                  8.0623                    112.6144                  17.4929                   69.6348                   14.0357                   6.4031                    50.8035                   81.7068                   111.8258                  108.4666                  22.4722                   109.8954                  147.085                   95.6033                   120.9339                  21.1896                   80.2309                   99999.0                   18.2483                   16.1245                   25.0                      102.8591                  95.5092                   40.8044                   77.6209                   15.2643                   97.0464                   101.0445                  8.0623                    39.5601                   106.6255                  68.3081                   116.619                   
42                        78.1025                   76.4003                   94.4034                   27.7849                   16.4924                   81.2219                   46.0435                   54.4243                   84.4038                   51.0784                   68.1175                   34.9857                   36.3456                   136.8832                  68.6003                   90.0944                   34.9285                   25.1794                   27.2947                   96.2549                   78.4092                   106.7801                  121.8277                  19.6469                   96.9381                   32.45                     51.4198                   4.4721                    23.0217                   45.607                    73.9797                   99.1262                   91.7606                   35.3836                   103.5857                  132.5481                  79.9312                   102.7035                  33.9706                   76.1052                   18.2483                   99999.0                   5.3852                    23.7065                   88.7525                   77.4919                   42.4264                   81.4125                   12.083                    79.0                      85.5628                   25.02                     34.2345                   88.7694                   62.0725                   101.5332                  
43                        79.0759                   81.0555                   99.6243                   23.7697                   21.095                    86.3713                   51.0                      58.1808                   83.2166                   55.0091                   70.0071                   30.8707                   39.2938                   141.993                   72.9452                   91.444                    31.3209                   23.0868                   23.4094                   95.3834                   81.0494                   112.058                   126.9055                  19.7231                   101.8332                  28.178                    54.7083                   3.6056                    21.8403                   41.4367                   79.2465                   104.4462                  92.4175                   30.6105                   108.7796                  137.6445                  84.8528                   105.3803                  29.2062                   81.0247                   16.1245                   5.3852                    99999.0                   27.5136                   87.818                    81.1542                   37.2156                   85.0                      6.7082                    81.1542                   90.5207                   23.7697                   39.0512                   92.6121                   67.1863                   101.1336                  
44                        95.3415                   76.2168                   86.6833                   37.3363                   8.6023                    62.3618                   26.5707                   62.0322                   106.2168                  58.0086                   82.8613                   43.382                    49.6488                   129.9577                  71.3863                   105.9481                  40.8167                   27.7849                   36.4005                   117.4436                  89.9444                   97.591                    115.6028                  17.8885                   93.5361                   42.1545                   61.6604                   24.0416                   23.3238                   68.9493                   56.8595                   89.1067                   109.5901                  47.4342                   84.8999                   125.8769                  76.922                    113.3578                  46.1736                   55.4437                   25.0                      23.7065                   27.5136                   99999.0                   110.1136                  84.1487                   63.1981                   57.7062                   32.5576                   92.4175                   81.8841                   24.4131                   14.7648                   93.9042                   43.3244                   121.758                   
45                        31.0644                   95.8853                   126.2894                  104.0625                  101.5332                  146.7106                  121.6594                  71.7844                   6.0828                    74.0945                   45.3982                   108.5219                  66.0303                   153.7335                  85.3288                   38.0789                   111.6288                  109.165                   104.4031                  7.6158                    57.1402                   138.8128                  140.1749                  107.5407                  115.0391                  105.6504                  65.5515                   91.0659                   109.1284                  62.2013                   136.8503                  135.9596                  26.9258                   103.0776                  164.5387                  149.566                   105.2236                  67.1193                   102.3572                  147.3397                  102.8591                  88.7525                   87.818                    110.1136                  99999.0                   75.0067                   80.3057                   164.8787                  87.6641                   49.2544                   109.7725                  110.9099                  113.8991                  83.3847                   131.7649                  16.1245                   
46                        44.1022                   23.3238                   52.811                    104.9238                  77.6466                   86.6833                   77.6209                   23.0868                   76.1643                   26.6833                   30.4138                   112.0045                  42.5441                   79.6241                   16.6433                   43.0813                   112.361                   102.2008                  104.5466                  78.4092                   18.6815                   64.5368                   65.4905                   94.3663                   40.05                     109.252                   26.9258                   81.9329                   99.2018                   92.8493                   77.0065                   62.9682                   54.1202                   110.9099                  98.8585                   75.3127                   32.6497                   32.2025                   109.5673                  91.8096                   95.5092                   77.4919                   81.1542                   84.1487                   75.0067                   99999.0                   104.2353                  120.1541                  86.3308                   26.6833                   36.0555                   101.1385                  77.4145                   12.0416                   78.7147                   74.9533                   
47                        85.44                     110.6029                  133.2967                  33.2866                   58.0345                   123.584                   88.0909                   83.4865                   74.4312                   81.5659                   83.1865                   33.9411                   63.0317                   174.1867                  100.7671                  99.0404                   38.2099                   43.382                    34.1321                   87.5728                   97.7548                   146.2395                  158.9277                  48.7647                   132.6386                  31.8904                   77.7946                   40.05                     46.2385                   18.1108                   116.4002                  139.2049                  95.352                    26.9072                   145.9932                  169.7439                  116.211                   120.7477                  26.8701                   118.0169                  40.8044                   42.4264                   37.2156                   63.1981                   80.3057                   104.2353                  99999.0                   118.4061                  31.0161                   94.8103                   122.0369                  47.0106                   76.0263                   116.2755                  104.3887                  96.1301                   
48                        145.2446                  102.3572                  94.0851                   87.1321                   65.5134                   44.911                    44.4072                   103.5857                  161.6168                  99.6444                   130.4301                  90.3549                   99.8248                   130.9695                  103.8171                  153.3786                  86.209                    76.1183                   86.1452                   171.8633                  132.484                   98.4784                   120.5073                  69.6419                   109.165                   90.6697                   106.5082                  81.4371                   72.5672                   126.3171                  50.01                     89.9444                   159.6246                  96.7471                   57.9828                   128.0976                  97.4936                   152.3155                  95.8853                   34.2345                   77.6209                   81.4125                   85.0                      57.7062                   164.8787                  120.1541                  118.4061                  99999.0                   89.3197                   137.379                   99.7246                   72.1803                   50.9902                   125.873                   42.2019                   174.7713                  
49                        81.3019                   87.2067                   106.2544                  19.2354                   27.0185                   92.6553                   57.0789                   63.5295                   82.7647                   60.5392                   73.3348                   25.9615                   44.0114                   148.5295                  78.8162                   94.0479                   27.1662                   21.5407                   19.105                    95.2733                   85.1469                   118.7266                  133.4166                  21.2603                   108.1896                  23.0868                   59.6154                   9.0554                    21.6333                   37.1214                   85.703                    111.1396                  94.2019                   24.6982                   115.1173                  144.17                    91.2414                   109.444                   23.3238                   87.0057                   15.2643                   12.083                    6.7082                    32.5576                   87.6641                   86.3308                   31.0161                   89.3197                   99999.0                   84.7172                   96.9381                   23.3238                   45.0111                   97.949                    73.437                    101.5923                  
50                        18.2483                   49.3964                   79.404                    103.9471                  84.5281                   109.0413                  93.1504                   33.8378                   51.1957                   37.7359                   11.7047                   110.4762                  43.2897                   104.4797                  40.3113                   17.2047                   111.8794                  104.0433                  103.8171                  52.0384                   8.0623                    91.2195                   91.022                    98.1275                   66.4831                   107.5174                  31.3847                   83.0241                   102.0049                  80.1561                   99.0858                   89.493                    27.5136                   107.7079                  123.422                   100.3195                  58.8727                   25.9422                   106.5129                  112.5389                  97.0464                   79.0                      81.1542                   92.4175                   49.2544                   26.6833                   94.8103                   137.379                   84.7172                   99999.0                   62.6418                   104.0048                  89.6939                   34.1321                   98.0816                   48.2701                   
51                        79.4292                   14.0                      16.7631                   112.6987                  78.492                    58.8727                   64.5368                   42.2019                   110.2225                  42.3792                   64.3817                   119.8541                  60.4152                   52.1536                   25.0799                   79.1202                   118.8486                  106.6068                  112.0446                  113.7717                  54.7083                   29.0689                   36.8917                   97.0824                   11.6619                   117.5925                  49.2443                   89.8276                   102.6499                  114.9652                  50.6952                   26.9258                   90.1388                   120.9339                  65.9469                   47.7074                   5.831                     63.1269                   119.5199                  66.9403                   101.0445                  85.5628                   90.5207                   81.8841                   109.7725                  36.0555                   122.0369                  99.7246                   96.9381                   62.6418                   99999.0                   104.2929                  70.0071                   33.4215                   58.0345                   110.8603                  
52                        102.7716                  97.0618                   110.3902                  15.0333                   25.807                    85.7963                   50.5371                   78.1025                   106.066                   74.4648                   93.1343                   19.6469                   61.131                    153.6392                  90.6201                   114.9826                  16.5529                   4.0                       14.0357                   118.5116                  103.2376                  121.6553                  139.0539                  7.2111                    115.9353                  19.105                    75.8024                   21.2132                   2.0                       58.258                    80.9506                   113.2784                  116.1809                  25.02                     108.1665                  149.4824                  99.0202                   127.4755                  24.0                      77.8845                   8.0623                    25.02                     23.7697                   24.4131                   110.9099                  101.1385                  47.0106                   72.1803                   23.3238                   104.0048                  104.2929                  99999.0                   39.1152                   111.9732                  67.1193                   124.6154                  
53                        95.4149                   66.0984                   73.2393                   52.0                      18.0                      48.0521                   12.1655                   57.0088                   110.6345                  52.8867                   81.4125                   58.1378                   49.4065                   116.4002                  63.0079                   104.6566                  55.5698                   42.5441                   51.0784                   120.9173                  86.0233                   83.6301                   102.3426                  32.6497                   81.5414                   56.8595                   58.3095                   36.0                      38.0789                   79.6241                   42.1545                   75.0067                   109.8362                  62.0322                   70.6116                   112.4144                  65.4599                   108.2589                  60.7454                   42.0                      39.5601                   34.2345                   39.0512                   14.7648                   113.8991                  77.4145                   76.0263                   50.9902                   45.0111                   89.6939                   70.0071                   39.1152                   99999.0                   86.0                      28.8617                   124.0846                  
54                        52.345                    24.1868                   49.3964                   116.3615                  87.8635                   89.3588                   84.8528                   34.4384                   85.1587                   37.6962                   40.4969                   123.4828                  54.3783                   70.3491                   23.0217                   48.5077                   123.6932                  113.2166                  115.9526                  86.0058                   26.3059                   59.6154                   57.0088                   105.0809                  33.8378                   120.7684                  38.833                    93.2309                   110.0636                  104.8046                  80.1311                   59.6825                   60.2993                   122.5887                  99.0051                   66.1891                   31.8904                   29.7321                   121.2353                  95.7079                   106.6255                  88.7694                   92.6121                   93.9042                   83.3847                   12.0416                   116.2755                  125.873                   97.949                    34.1321                   33.4215                   111.9732                  86.0                      99999.0                   83.8153                   81.3941                   
55                        108.3005                  60.1664                   54.8179                   80.6536                   46.5296                   19.2354                   16.7631                   64.4438                   129.4952                  60.8276                   92.6337                   86.539                    65.8635                   95.7079                   62.1691                   114.7693                  83.672                    70.7743                   79.712                    138.1304                  92.4175                   62.1691                   83.2166                   61.0983                   68.1175                   85.44                     68.6222                   64.3817                   66.3099                   106.3814                  14.2127                   53.2259                   122.3479                  90.7579                   41.7732                   92.1954                   55.4437                   110.9099                  89.493                    15.6525                   68.3081                   62.0725                   67.1863                   43.3244                   131.7649                  78.7147                   104.3887                  42.2019                   73.437                    98.0816                   58.0345                   67.1193                   28.8617                   83.8153                   99999.0                   139.4633                  
56                        32.2025                   97.4166                   127.6127                  118.6802                  113.1592                  153.1013                  130.8167                  76.6616                   22.2036                   79.6116                   48.3011                   123.4544                  74.9667                   151.0033                  87.6641                   33.0151                   126.3843                  123.13                    118.9622                  10.2956                   56.2939                   139.4884                  138.2932                  120.7684                  114.5862                  120.5404                  71.2811                   104.2161                  122.7721                  78.0577                   143.1223                  137.6408                  21.095                    118.2582                  169.5317                  147.0306                  106.9018                  60.208                    117.4777                  154.8063                  116.619                   101.5332                  101.1336                  121.758                   16.1245                   74.9533                   96.1301                   174.7713                  101.5923                  48.2701                   110.8603                  124.6154                  124.0846                  81.3941                   139.4633                  99999.0                   
;
SCALAR TOTAL  /56/;
SCALAR NODES  /50/;
SCALAR W  /2/;
SCALAR Y  /112/;
SCALAR M  /1/;
BINARY VARIABLE X(I,J,K)  x variable ;
INTEGER VARIABLE U(K,O)    u variable ;
VARIABLE   Z         objective ;
EQUATIONS
CON1(K)   constraint 1
CON2(K)   constraint 2
CON3   constraint 3
CON4(O)   constraint 4
CON5(O,K)   constraint 5
CON6(O,K)   constraint 6
CON7(K)   constraint 7
CON10(O,P,K)   constraint 10
CON11(O,K)   constraint 11;
CON1(K).. SUM(O,X(K,O,K)) =E= 1;
CON2(K).. SUM(O,X(O,K,K)) =E= 1;
CON3..  SUM((K,L),X(K,L,K)) =E= 0;
CON4(O) .. SUM(K,X(K,O,K)) + SUM((P,K),X(P,O,K)) =e= W;
CON5(O,K) .. X(K,O,K) + SUM(P,X(P,O,K)) =L= 1;
CON6(O,K) .. X(K,O,K) + SUM(P,X(P,O,K)) - X(O,K,K) - SUM(P,X(O,P,K)) =e= 0;
CON7(K) .. Z =G= SUM(O,C(K,O)*X(K,O,K) + C(O,K)*X(O,K,K)) + SUM((P,O),C(P,O)*X(P,O,K));
CON10(O,P,K) .. U(K,O) - U(K,P) + (TOTAL-1)*X(O,P,K) + (TOTAL-3)*X(P,O,K) =L= (TOTAL-2);
CON11(O,K) .. X(O,O,K) =e= 0;
MODEL TRANSPORT /ALL/;
Option Reslim = 28800;
SOLVE TRANSPORT USING MIP MINIMIZING Z ;
