SET
I  first /1*66/
K(I)  depot1 /1*6/
O(I)  node1 /7*66/
alias(I,J);
alias(K,L);
alias(O,P);
TABLE C(I,J)  node to node
                          1                         2                         3                         4                         5                         6                         7                         8                         9                         10                        11                        12                        13                        14                        15                        16                        17                        18                        19                        20                        21                        22                        23                        24                        25                        26                        27                        28                        29                        30                        31                        32                        33                        34                        35                        36                        37                        38                        39                        40                        41                        42                        43                        44                        45                        46                        47                        48                        49                        50                        51                        52                        53                        54                        55                        56                        57                        58                        59                        60                        61                        62                        63                        64                        65                        66                        
1                         99999.0                   99999.0                   99999.0                   99999.0                   99999.0                   99999.0                   101.8332                  72.6911                   98.5089                   86.406                    97.0464                   91.0659                   113.4416                  16.6433                   87.5957                   97.2934                   68.0074                   77.3692                   30.4138                   122.0369                  92.0869                   69.8713                   100.4042                  140.4706                  97.3293                   9.4868                    61.8142                   88.0568                   114.1271                  53.7587                   126.7517                  101.5332                  87.2983                   105.0                     56.2939                   8.0623                    61.327                    101.5332                  126.1269                  101.2028                  141.1559                  105.019                   95.5249                   53.1601                   69.3758                   129.5415                  137.9275                  125.9603                  71.5681                   107.0561                  145.1654                  122.1229                  83.7257                   15.5242                   16.4924                   99.8499                   101.8676                  70.7248                   60.407                    36.8917                   107.1681                  127.7811                  45.1774                   121.6306                  145.4991                  140.6165                  
2                         99999.0                   99999.0                   99999.0                   99999.0                   99999.0                   99999.0                   115.434                   9.434                     99.0202                   70.2638                   105.8915                  34.9285                   49.2544                   73.0068                   114.4028                  31.5753                   66.6033                   11.7047                   39.4462                   123.1666                  102.7278                  26.4764                   101.2423                  109.0183                  99.2975                   57.8705                   5.831                     22.4722                   49.0102                   13.1529                   118.1059                  51.923                    22.0                      52.0                      65.6049                   73.7564                   97.9898                   51.923                    111.6826                  94.3663                   107.2287                  39.2938                   96.5194                   13.0                      69.4262                   71.0634                   77.1038                   145.0414                  9.2195                    57.5674                   98.6813                   142.1443                  86.2148                   52.5547                   82.2253                   113.9517                  36.1386                   39.0                      84.0595                   46.8188                   108.7566                  84.9294                   24.7386                   57.4543                   112.2185                  102.9563                  
3                         99999.0                   99999.0                   99999.0                   99999.0                   99999.0                   99999.0                   134.2013                  24.1661                   114.6298                  83.4386                   123.8467                  31.3847                   21.4709                   103.1746                  137.3062                  1.4142                    86.6083                   19.0263                   68.7095                   136.6931                  121.6059                  39.8246                   116.7262                  107.7033                  115.434                   88.0568                   34.4819                   9.4868                    19.4165                   43.1045                   127.8828                  47.7598                   9.434                     44.1475                   89.1572                   104.1393                  124.3262                  47.7598                   119.365                   107.5639                  104.561                   9.434                     112.6099                  43.2897                   89.3588                   52.2015                   54.5894                   163.8353                  25.4951                   51.6624                   88.0511                   161.4001                  104.2017                  82.5651                   112.5877                  133.0038                  6.4031                    54.6443                   108.6324                  74.8131                   123.7457                  78.9177                   54.0093                   31.4006                   109.444                   98.3107                   
4                         99999.0                   99999.0                   99999.0                   99999.0                   99999.0                   99999.0                   17.0294                   112.8007                  6.3246                    37.4433                   7.6158                    91.022                    141.3542                  86.977                    36.2353                   120.5073                  38.4838                   107.7126                  108.1712                  22.0227                   11.3137                   128.6313                  5.0                       66.4831                   5.0                       103.1213                  106.5317                  111.7587                  137.6118                  95.3834                   30.2324                   81.8596                   118.1059                  88.1419                   45.7056                   101.7104                  52.6972                   81.8596                   35.609                    17.0294                   70.5195                   123.4058                  7.8102                    97.1288                   35.8469                   109.2016                  120.3329                  44.2945                   113.0044                  82.6378                   93.3435                   42.5441                   18.3848                   104.5801                  105.9056                  17.0294                   121.6594                  66.5282                   41.4849                   70.8308                   7.2801                    78.0256                   86.8159                   122.0901                  72.2357                   75.9276                   
5                         99999.0                   99999.0                   99999.0                   99999.0                   99999.0                   99999.0                   51.4782                   79.6492                   30.0                      1.4142                    40.7185                   55.0                      105.5509                  78.7718                   62.0725                   84.8646                   20.5183                   73.4983                   85.0941                   52.2015                   39.8497                   97.4987                   32.0156                   54.4059                   31.0644                   86.6833                   75.0267                   76.4853                   101.671                   65.2534                   46.8402                   46.4866                   83.2406                   52.811                    33.3017                   91.2414                   63.6946                   46.4866                   42.0476                   23.0217                   55.9732                   87.4586                   28.3019                   67.1863                   20.6155                   75.6637                   86.8332                   80.2621                   80.0625                   48.0521                   68.942                    78.2943                   23.1948                   86.122                    97.7548                   50.6952                   85.7963                   32.6497                   45.618                    50.9608                   38.8973                   51.264                    59.3043                   86.406                    59.8164                   57.4891                   
6                         99999.0                   99999.0                   99999.0                   99999.0                   99999.0                   99999.0                   116.211                   65.7951                   93.3006                   64.6297                   105.513                   31.1448                   61.6117                   121.6553                  127.6636                  49.163                    79.1581                   56.3649                   101.9117                  109.1788                  105.3233                  86.3771                   94.8683                   63.2851                   94.921                    115.8836                  71.0211                   49.0408                   55.7853                   71.5052                   95.4411                   21.587                    56.5155                   16.5529                   88.2836                   128.4134                  124.7878                  21.587                    84.8116                   83.2166                   59.0593                   45.0999                   92.4446                   73.0                      81.0555                   10.0                      21.095                    143.3771                  67.1193                   18.0                      38.0526                   142.0035                  88.955                    111.9464                  136.7516                  115.6936                  46.0                      53.4883                   106.4707                  88.1022                   100.09                    32.7567                   76.6942                   28.6531                   63.5059                   51.4782                   
7                         101.8332                  115.434                   134.2013                  17.0294                   51.4782                   116.211                   99999.0                   124.5231                  23.1948                   52.8015                   10.7703                   105.8159                  155.4252                  87.0919                   23.4307                   134.4024                  48.8365                   120.283                   114.3897                  26.4008                   12.7279                   138.8092                  22.0227                   82.28                     21.3776                   106.3015                  117.2902                  125.2517                  151.9901                  105.603                   41.6173                   97.8621                   131.1373                  104.1777                  52.3546                   102.1225                  46.5725                   97.8621                   49.6588                   34.0588                   86.5852                   137.8441                  23.7697                   107.2007                  46.0109                   125.8769                  137.0328                  29.7321                   124.5793                  98.9798                   110.2225                  27.2029                   30.0                      108.6692                  105.0428                  2.0                       135.9154                  79.6492                   41.4367                   77.3886                   19.9249                   95.0474                   95.9635                   137.884                   87.9318                   92.3959                   
8                         72.6911                   9.434                     24.1661                   112.8007                  79.6492                   65.7951                   124.5231                  99999.0                   107.6476                  78.2943                   114.8651                  37.4833                   41.0                      81.0987                   123.8103                  25.4951                   75.6902                   9.4868                    44.5982                   131.5485                  111.8034                  21.2132                   109.859                   114.1578                  108.0046                  64.3273                   11.0                      18.3848                   41.4367                   22.1359                   125.8014                  55.3263                   14.8661                   54.3415                   75.0                      80.7527                   107.3546                  55.3263                   118.9285                  102.5768                  112.0045                  33.541                    105.2093                  21.587                    78.5175                   70.4911                   75.2861                   154.1752                  1.4142                    60.6712                   101.1385                  151.3209                  95.1315                   58.6941                   89.1067                   123.0691                  30.4138                   47.0106                   93.4933                   56.0803                   117.3243                  88.5664                   33.8378                   53.9073                   117.0043                  107.1681                  
9                         98.5089                   99.0202                   114.6298                  6.3246                    30.0                      93.3006                   23.1948                   107.6476                  99999.0                   31.4006                   13.0384                   85.0                      135.4732                  86.122                    40.8534                   114.6909                  34.4819                   102.3035                  104.9238                  25.0                      15.2315                   123.9435                  2.2361                    61.7414                   2.2361                    101.005                   101.7104                  106.066                   131.6549                  90.7855                   29.1548                   75.5844                   112.5389                  81.8596                   43.0465                   100.6231                  54.6717                   75.5844                   32.5576                   11.0454                   65.5515                   117.4436                  3.0                       92.5743                   32.0156                   102.8834                  114.0175                  50.5371                   107.8981                  76.3217                   87.5728                   48.8467                   15.0333                   102.1225                  105.2616                  23.0217                   115.7454                  61.0737                   41.6293                   67.7422                   9.8489                    72.0                      82.6378                   115.8361                  67.5426                   70.6045                   
10                        86.406                    70.2638                   83.4386                   37.4433                   1.4142                    64.6297                   52.8015                   78.2943                   31.4006                   99999.0                   42.0476                   53.6004                   104.1393                  78.492                    63.1269                   83.4506                   20.5183                   72.111                    84.1487                   53.6004                   41.1096                   96.2081                   33.4215                   54.6443                   32.45                     86.0233                   73.736                    75.0733                   100.2646                  64.0312                   48.0833                   45.2217                   81.8352                   51.5461                   33.2415                   90.824                    64.2573                   45.2217                   43.1045                   24.4131                   56.0803                   86.0523                   29.6816                   65.9697                   20.8087                   74.5453                   85.7088                   81.6333                   78.7147                   46.8722                   68.4471                   79.6492                   24.3311                   85.3756                   97.4166                   52.0                      84.386                    31.305                    46.0977                   50.2892                   40.3113                   50.6952                   58.2151                   85.0882                   60.0                      57.3847                   
11                        97.0464                   105.8915                  123.8467                  7.6158                    40.7185                   105.513                   10.7703                   114.8651                  13.0384                   42.0476                   99999.0                   95.1893                   145.0                     83.2166                   28.6531                   124.0161                  39.4081                   110.3087                  107.2054                  25.7099                   5.099                     129.7998                  12.3693                   74.0945                   11.0                      100.7174                  108.0046                  114.9783                  141.4814                  96.5194                   36.8782                   87.0919                   121.0165                  93.4077                   44.5982                   98.1275                   46.5296                   87.0919                   43.0116                   24.0832                   78.1089                   127.3146                  13.1529                   98.1835                   36.6197                   115.2085                  126.3725                  40.0                      114.9783                  88.2326                   100.6032                  37.7359                   19.799                    102.5914                  101.8332                  10.198                    125.4313                  69.4262                   37.2156                   69.8928                   13.4536                   85.0059                   87.3212                   127.122                   79.8499                   83.4326                   
12                        91.0659                   34.9285                   31.3847                   91.022                    55.0                      31.1448                   105.8159                  37.4833                   85.0                      53.6004                   95.1893                   99999.0                   50.9313                   93.0484                   111.9464                  31.0644                   60.7289                   28.1603                   70.7672                   106.066                   93.5361                   58.6941                   87.0057                   77.9295                   86.0233                   85.2115                   40.7185                   25.0                      46.7547                   40.3609                   96.6075                   18.0                      32.9848                   17.088                    66.4831                   98.4886                   103.3925                  18.0                      87.983                    77.1557                   75.326                    32.5576                   83.2346                   41.8688                   63.2456                   38.6005                   46.9574                   135.0741                  38.6394                   23.1948                   63.8905                   132.9248                  76.0592                   81.0555                   106.9439                  104.8094                  31.1448                   29.2746                   85.9884                   60.1664                   93.723                    51.1566                   46.0435                   35.0571                   80.3057                   70.0                      
13                        113.4416                  49.2544                   21.4709                   141.3542                  105.5509                  61.6117                   155.4252                  41.0                      135.4732                  104.1393                  145.0                     50.9313                   99999.0                   122.0656                  158.7766                  21.095                    108.0463                  39.0512                   84.3445                   156.9841                  142.8741                  48.7545                   137.5354                  123.3086                  136.3598                  104.8094                  52.0                      30.8707                   6.0                       62.3939                   147.2719                  65.192                    27.4591                   60.4152                   110.5712                  121.499                   145.4648                  65.192                    138.2208                  128.0039                  119.6161                  18.6011                   133.544                   62.2013                   110.7881                  60.1332                   58.4209                   185.0                     42.0119                   68.0                      99.2975                   182.628                   125.4313                  98.9949                   129.7575                  154.2628                  19.799                    76.0066                   130.0                     95.3415                   144.423                   93.3006                   73.8241                   35.0                      124.3101                  112.5789                  
14                        16.6433                   73.0068                   103.1746                  86.977                    78.7718                   121.6553                  87.0919                   81.0987                   86.122                    78.492                    83.2166                   93.0484                   122.0656                  99999.0                   71.5681                   104.2353                  58.6686                   84.1487                   43.382                    108.6646                  78.1601                   81.9085                   87.8635                   133.1353                  84.7231                   24.7588                   70.1142                   94.4299                   122.0164                  60.075                    114.9826                  100.8464                  95.0053                   105.119                   46.0652                   15.0333                   44.9444                   100.8464                  115.5206                  90.1388                   134.4024                  111.5437                  83.1986                   60.0083                   59.4811                   130.6139                  139.8463                  110.1136                  80.1561                   106.0                     141.6757                  106.2309                  71.8401                   30.0                      19.3132                   85.0941                   108.462                   68.7968                   46.0435                   33.6155                   94.2019                   123.8426                  49.4975                   125.8769                  138.4522                  134.8258                  
15                        87.5957                   114.4028                  137.3062                  36.2353                   62.0725                   127.6636                  23.4307                   123.8103                  40.8534                   63.1269                   28.6531                   111.9464                  158.7766                  71.5681                   99999.0                   137.7425                  51.264                    121.2642                  105.3945                  49.8197                   25.632                    135.0741                  40.7185                   102.5524                  38.6264                   93.6216                   115.1086                  127.9414                  156.1089                  102.9417                  64.5368                   107.5174                  132.7403                  113.7717                  48.8262                   86.3481                   27.1662                   107.5174                  71.5612                   51.5461                   106.4049                  142.3517                  39.8497                   104.2353                  48.7032                   137.6154                  148.7582                  38.6394                   123.6002                  109.7725                  127.4755                  34.7131                   39.0                      97.0464                   87.8237                   21.9317                   140.0357                  83.3847                   31.1448                   70.7672                   41.6173                   111.018                   92.0217                   146.0308                  108.3374                  111.3194                  
16                        97.2934                   31.5753                   1.4142                    120.5073                  84.8646                   49.163                    134.4024                  25.4951                   114.6909                  83.4506                   124.0161                  31.0644                   21.095                    104.2353                  137.7425                  99999.0                   86.954                    20.0998                   70.0071                   136.6199                  121.8277                  41.2311                   116.7776                  107.0047                  115.5206                  89.2861                   35.7351                   10.198                    18.6815                   44.1814                   127.6401                  47.1699                   10.8167                   43.4166                   89.6939                   105.3233                  125.0                     47.1699                   119.0378                  107.5174                  103.8123                  8.0623                    112.6987                  44.4072                   89.6939                   50.9608                   53.2353                   164.0122                  26.8328                   50.9608                   87.023                    161.6045                  104.4031                  83.8153                   113.7805                  133.2216                  5.0                       54.9181                   109.2016                  75.6637                   123.7619                  78.0897                   55.0                      30.0                      108.683                   97.4936                   
17                        68.0074                   66.6033                   86.6083                   38.4838                   20.5183                   79.1581                   48.8365                   75.6902                   34.4819                   20.5183                   39.4081                   60.7289                   108.0463                  58.6686                   51.264                    86.954                    99999.0                   71.7008                   70.7107                   59.4811                   36.1248                   90.4268                   36.6879                   74.8131                   34.176                    68.884                    68.6003                   77.3886                   105.119                   57.1402                   60.0083                   58.0                      82.801                    64.0312                   12.8062                   71.6938                   45.8912                   58.0                      58.2495                   34.0147                   76.4853                   91.236                    31.6228                   58.8303                   2.8284                    89.1403                   100.045                   78.492                    75.743                    61.2046                   88.193                    75.6902                   20.1246                   69.1809                   77.8267                   47.3814                   89.0056                   32.2025                   27.4591                   34.0                      44.2719                   70.2353                   48.3322                   95.1262                   80.2808                   77.8974                   
18                        77.3692                   11.7047                   19.0263                   107.7126                  73.4983                   56.3649                   120.283                   9.4868                    102.3035                  72.111                    110.3087                  28.1603                   39.0512                   84.1487                   121.2642                  20.0998                   71.7008                   99999.0                   51.0                      125.6702                  107.5639                  30.5941                   104.4844                  105.385                   102.8251                  69.5701                   16.6433                   10.7703                   38.1182                   24.0832                   118.9622                  46.0977                   11.7047                   44.911                    72.5603                   85.3756                   106.6255                  46.0977                   111.6154                  96.5194                   103.0776                  27.6586                   100.005                   24.3311                   74.5185                   61.2944                   66.5282                   150.0133                  10.7703                   51.3517                   91.6788                   147.3228                  90.5097                   64.2573                   93.8616                   118.9285                  24.5153                   41.2311                   91.6788                   56.2939                   111.8258                  79.3095                   35.0571                   46.0435                   108.074                   98.0459                   
19                        30.4138                   39.4462                   68.7095                   108.1712                  85.0941                   101.9117                  114.3897                  44.5982                   104.9238                  84.1487                   107.2054                  70.7672                   84.3445                   43.382                    105.3945                  70.0071                   70.7107                   51.0                      99999.0                   129.8384                  102.7862                  39.4588                   107.0794                  133.9291                  104.3456                  21.095                    34.4384                   61.7171                   85.6154                   30.4138                   130.3112                  84.8764                   59.4643                   86.8332                   62.6418                   38.2099                   82.134                    84.8764                   127.0157                  104.3887                  133.4541                  78.0                      101.9804                  29.0                      72.9932                   108.9312                  115.8836                  141.778                   43.3244                   90.6973                   131.3697                  138.2353                  90.0278                   15.0333                   46.0109                   112.5389                  74.8465                   59.1354                   74.793                    37.3631                   114.5426                  115.382                   27.8568                   96.8969                   138.2208                  131.103                   
20                        122.0369                  123.1666                  136.6931                  22.0227                   52.2015                   109.1788                  26.4008                   131.5485                  25.0                      53.6004                   25.7099                   106.066                   156.9841                  108.6646                  49.8197                   136.6199                  59.4811                   125.6702                  129.8384                  99999.0                   30.8058                   148.4756                  22.8035                   63.0317                   25.4951                   125.1439                  126.1269                  128.5496                  152.7613                  115.4513                  18.2483                   94.2019                   135.4179                  100.2098                  67.6018                   123.4909                  71.6938                   94.2019                   29.0                      29.2062                   68.0                      138.6001                  27.8927                   117.2732                  57.0088                   118.0678                  128.8604                  38.0132                   131.8825                  93.7443                   95.0368                   38.3275                   39.8121                   126.5701                  127.4245                  28.0179                   137.186                   84.5991                   62.8013                   92.5743                   15.2971                   82.5651                   107.5639                  134.2721                  68.1836                   75.1665                   
21                        92.0869                   102.7278                  121.6059                  11.3137                   39.8497                   105.3233                  12.7279                   111.8034                  15.2315                   41.1096                   5.099                     93.5361                   142.8741                  78.1601                   25.632                    121.8277                  36.1248                   107.5639                  102.7862                  30.8058                   99999.0                   126.2458                  15.2643                   76.9675                   13.0                      95.8853                   104.6375                  112.6144                  139.517                   93.0054                   41.4005                   86.3308                   118.4441                  92.6553                   40.3113                   93.086                    41.6773                   86.3308                   46.8615                   25.9615                   80.7775                   125.3994                  14.3178                   94.6256                   33.3017                   115.1217                  126.3012                  42.45                     111.866                   87.8009                   102.2595                  39.8246                   17.4929                   97.8621                   96.7471                   11.4018                   123.422                   67.0075                   32.1403                   65.5515                   18.0278                   86.209                    83.5284                   126.0873                  82.7647                   85.7263                   
22                        69.8713                   26.4764                   39.8246                   128.6313                  97.4987                   86.3771                   138.8092                  21.2132                   123.9435                  96.2081                   129.7998                  58.6941                   48.7545                   81.9085                   135.0741                  41.2311                   90.4268                   30.5941                   39.4588                   148.4756                  126.2458                  99999.0                   126.1784                  135.0333                  124.0363                  60.531                    22.4722                   37.5766                   51.6236                   33.2866                   144.2221                  76.531                    31.0644                   75.505                    87.2067                   77.6466                   115.434                   76.531                    138.0507                  120.0167                  133.015                   48.8365                   121.3136                  31.6228                   93.1933                   90.3383                   94.0319                   168.0476                  20.0998                   81.8841                   122.2497                  164.9242                  110.4536                  54.4518                   85.2877                   137.2006                  46.0977                   65.146                    104.0048                  64.5368                   133.7647                  109.7725                  43.1856                   71.218                    138.0145                  128.316                   
23                        100.4042                  101.2423                  116.7262                  5.0                       32.0156                   94.8683                   22.0227                   109.859                   2.2361                    33.4215                   12.3693                   87.0057                   137.5354                  87.8635                   40.7185                   116.7776                  36.6879                   104.4844                  107.0794                  22.8035                   15.2643                   126.1784                  99999.0                   61.8466                   3.1623                    103.0                     103.9423                  108.1896                  133.6862                  93.0215                   27.7308                   77.3692                   114.6909                  83.6301                   45.0999                   102.4207                  55.6058                   77.3692                   31.8277                   12.0416                   65.7875                   119.4738                  5.099                     94.8103                   34.2053                   104.4031                  115.5206                  48.7545                   110.1136                  78.0                      88.3629                   47.1699                   17.1172                   104.1729                  106.9626                  22.0227                   117.7964                  63.2535                   43.0813                   69.8713                   7.6158                    73.0274                   84.8646                   117.6478                  67.624                    71.0634                   
24                        140.4706                  109.0183                  107.7033                  66.4831                   54.4059                   63.2851                   82.28                     114.1578                  61.7414                   54.6443                   74.0945                   77.9295                   123.3086                  133.1353                  102.5524                  107.0047                  74.8131                   105.385                   133.9291                  63.0317                   76.9675                   135.0333                  61.8466                   99999.0                   63.9766                   139.2049                  114.1096                  102.7716                  117.7837                  108.0463                  45.0111                   60.208                    110.8197                  63.6003                   87.6185                   145.2618                  113.6002                  60.208                    34.0588                   51.4782                   5.3852                    105.3423                  63.0635                   110.0273                  74.5185                   69.029                    77.7946                   101.0445                  115.1086                  56.0446                   34.8855                   101.2423                  68.6003                   137.7861                  152.0132                  82.8613                   105.3043                  74.9533                   97.0824                   103.7545                  62.3618                   30.5287                   106.2309                  91.9239                   5.831                     13.8924                   
25                        97.3293                   99.2975                   115.434                   5.0                       31.0644                   94.921                    21.3776                   108.0046                  2.2361                    32.45                     11.0                      86.0233                   136.3598                  84.7231                   38.6264                   115.5206                  34.176                    102.8251                  104.3456                  25.4951                   13.0                      124.0363                  3.1623                    63.9766                   99999.0                   100.005                   101.8725                  106.7942                  132.6122                  90.824                    30.8707                   76.9675                   113.1724                  83.2586                   42.19                     99.2975                   52.6308                   76.9675                   34.6554                   13.1529                   67.7791                   118.4061                  2.8284                    92.5905                   31.6228                   104.5466                  115.6936                  49.2443                   108.2266                  77.8332                   89.6772                   47.4236                   14.3178                   101.2423                  103.8123                  21.095                    116.6619                  61.6198                   39.9249                   67.082                    10.198                    74.0068                   82.4621                   117.1708                  69.7782                   72.8011                   
26                        9.4868                    57.8705                   88.0568                   103.1213                  86.6833                   115.8836                  106.3015                  64.3273                   101.005                   86.0233                   100.7174                  85.2115                   104.8094                  24.7588                   93.6216                   89.2861                   68.884                    69.5701                   21.095                    125.1439                  95.8853                   60.531                    103.0                     139.2049                  100.005                   99999.0                   53.6004                   80.3243                   105.7213                  46.5188                   128.5613                  96.8762                   79.0759                   99.905                    58.0775                   17.1172                   68.0955                   96.8762                   127.0984                  102.7035                  139.5314                  97.1236                   98.0051                   45.6946                   70.5762                   123.8103                  131.7649                  131.5751                  63.1506                   102.5329                  141.651                   127.8124                  86.0233                   6.0828                    25.02                     104.3456                  93.9628                   67.2012                   65.0                      35.7351                   110.0409                  124.6194                  39.2046                   114.5426                  144.0278                  138.4233                  
27                        61.8142                   5.831                     34.4819                   106.5317                  75.0267                   71.0211                   117.2902                  11.0                      101.7104                  73.736                    108.0046                  40.7185                   52.0                      70.1142                   115.1086                  35.7351                   68.6003                   16.6433                   34.4384                   126.1269                  104.6375                  22.4722                   103.9423                  114.1096                  101.8725                  53.6004                   99999.0                   27.2947                   52.345                    12.2066                   121.758                   57.5674                   25.4951                   57.7754                   66.5282                   69.8713                   97.5295                   57.5674                   115.6936                  97.5756                   112.4455                  43.6578                   99.1262                   11.1803                   71.4003                   76.8375                   82.7345                   146.7549                  10.0499                   63.2456                   104.4031                  143.7533                  88.4816                   48.0833                   78.2624                   115.7454                  40.4969                   42.72                     84.4038                   46.0652                   111.5078                  90.471                    23.7065                   62.6817                   117.4266                  108.3421                  
28                        88.0568                   22.4722                   9.4868                    111.7587                  76.4853                   49.0408                   125.2517                  18.3848                   106.066                   75.0733                   114.9783                  25.0                      30.8707                   94.4299                   127.9414                  10.198                    77.3886                   10.7703                   61.7171                   128.5496                  112.6144                  37.5766                   108.1896                  102.7716                  106.7942                  80.3243                   27.2947                   99999.0                   28.8617                   34.5254                   120.4159                  42.5793                   8.0623                    40.0125                   79.7057                   96.0469                   114.8434                  42.5793                   112.2943                  99.3579                   99.985                    17.1172                   103.9663                  34.9285                   80.1561                   52.7731                   57.0088                   154.9322                  19.799                    47.1699                   85.8429                   152.4336                  95.268                    75.0267                   104.5466                  124.0161                  14.0357                   45.607                    99.1615                   65.4905                   115.3126                  75.06                     45.0444                   35.609                    104.9381                  94.2603                   
29                        114.1271                  49.0102                   19.4165                   137.6118                  101.671                   55.7853                   151.9901                  41.4367                   131.6549                  100.2646                  141.4814                  46.7547                   6.0                       122.0164                  156.1089                  18.6815                   105.119                   38.1182                   85.6154                   152.7613                  139.517                   51.6236                   133.6862                  117.7837                  132.6122                  105.7213                  52.345                    28.8617                   99999.0                   62.0081                   142.6359                  60.2163                   27.0185                   55.2268                   108.2682                  122.1884                  143.6802                  60.2163                   133.4054                  123.9072                  114.0175                  14.2127                   129.8075                  62.0081                   107.8239                  54.1479                   52.469                    181.4635                  42.5793                   62.7694                   93.3809                   179.1787                  122.0369                  100.02                    130.5412                  150.8807                  16.1245                   72.9452                   127.8124                  94.2019                   140.4635                  87.6641                   73.171                    29.0                      118.6802                  106.8925                  
30                        53.7587                   13.1529                   43.1045                   95.3834                   65.2534                   71.5052                   105.603                   22.1359                   90.7855                   64.0312                   96.5194                   40.3609                   62.3939                   60.075                    102.9417                  44.1814                   57.1402                   24.0832                   30.4138                   115.4513                  93.0054                   33.2866                   93.0215                   108.0463                  90.824                    46.5188                   12.2066                   34.5254                   62.0081                   99999.0                   112.0893                  55.0727                   35.0571                   56.6127                   54.4518                   61.6847                   85.4225                   55.0727                   106.7052                  87.3155                   106.8878                  51.6236                   88.1192                   2.0                       59.9083                   78.5684                   85.8021                   134.9518                  21.5407                   60.9016                   101.9657                  131.8939                  77.1751                   41.6773                   70.214                    104.0192                  48.5077                   34.0588                   72.2011                   34.0147                   100.6231                  86.7295                   11.7047                   68.0294                   111.8034                  103.5809                  
31                        126.7517                  118.1059                  127.8828                  30.2324                   46.8402                   95.4411                   41.6173                   125.8014                  29.1548                   48.0833                   36.8782                   96.6075                   147.2719                  114.9826                  64.5368                   127.6401                  60.0083                   118.9622                  130.3112                  18.2483                   41.4005                   144.2221                  27.7308                   45.0111                   30.8707                   128.5613                  121.758                   120.4159                  142.6359                  112.0893                  99999.0                   82.7587                   127.7693                  88.3912                   70.5762                   129.2942                  82.9277                   82.7587                   11.4018                   26.0                      50.0899                   128.6895                  31.9531                   114.0175                  58.0775                   103.7738                  114.2366                  56.1427                   126.3171                  81.3941                   77.8781                   56.5685                   43.1741                   129.1395                  134.2013                  42.8019                   127.6127                  79.1202                   70.7743                   94.0053                   23.4307                   66.7083                   105.7213                  121.918                   50.04                     57.5587                   
32                        101.5332                  51.923                    47.7598                   81.8596                   46.4866                   21.587                    97.8621                   55.3263                   75.5844                   45.2217                   87.0919                   18.0                      65.192                    100.8464                  107.5174                  47.1699                   58.0                      46.0977                   84.8764                   94.2019                   86.3308                   76.531                    77.3692                   60.208                    76.9675                   96.8762                   57.5674                   42.5793                   60.2163                   55.0727                   82.7587                   99999.0                   50.636                    6.3246                    66.7533                   108.4066                  103.3925                  0.0                       73.2462                   66.3702                   57.4282                   46.6476                   74.3236                   56.8243                   60.0333                   31.4006                   42.107                    126.115                   56.4358                   5.831                     47.0106                   124.3905                  69.3758                   93.4345                   116.6062                  97.1442                   46.0652                   32.2025                   85.1469                   67.2309                   83.3547                   33.2415                   58.1378                   40.3113                   62.3939                   52.0                      
33                        87.2983                   22.0                      9.434                     118.1059                  83.2406                   56.5155                   131.1373                  14.8661                   112.5389                  81.8352                   121.0165                  32.9848                   27.4591                   95.0053                   132.7403                  10.8167                   82.801                    11.7047                   59.4643                   135.4179                  118.4441                  31.0644                   114.6909                  110.8197                  113.1724                  79.0759                   25.4951                   8.0623                    27.0185                   35.0571                   127.7693                  50.636                    99999.0                   48.0416                   84.119                    95.352                    118.33                    50.636                    119.8541                  106.2121                  108.0463                  18.868                    110.3449                  35.0                      85.6037                   59.6154                   62.9682                   160.8633                  16.1555                   55.2268                   93.6483                   158.2561                  101.2373                  73.4983                   103.7545                  129.8345                  15.8114                   51.6236                   103.3151                  67.9117                   121.918                   83.0963                   46.3897                   40.3609                   113.0                     102.3132                  
34                        105.0                     52.0                      44.1475                   88.1419                   52.811                    16.5529                   104.1777                  54.3415                   81.8596                   51.5461                   93.4077                   17.088                    60.4152                   105.119                   113.7717                  43.4166                   64.0312                   44.911                    86.8332                   100.2098                  92.6553                   75.505                    83.6301                   63.6003                   83.2586                   99.905                    57.7754                   40.0125                   55.2268                   56.6127                   88.3912                   6.3246                    48.0416                   99999.0                   72.4431                   112.0714                  109.2245                  6.3246                    78.6448                   72.5603                   60.4152                   42.0476                   80.6226                   58.2495                   66.1211                   25.9615                   36.3456                   132.382                   55.5428                   7.6158                    46.8402                   130.679                   75.6902                   96.1769                   120.3703                  103.465                   41.7852                   37.0                      91.0494                   71.5542                   89.5545                   35.0571                   60.8276                   34.1321                   65.307                    54.3323                   
35                        56.2939                   65.6049                   89.1572                   45.7056                   33.3017                   88.2836                   52.3546                   75.0                      43.0465                   33.2415                   44.5982                   66.4831                   110.5712                  46.0652                   48.8262                   89.6939                   12.8062                   72.5603                   62.6418                   67.6018                   40.3113                   87.2067                   45.0999                   87.6185                   42.19                     58.0775                   66.5282                   79.7057                   108.2682                  54.4518                   70.5762                   66.7533                   84.119                    72.4431                   99999.0                   59.4643                   37.0135                   66.7533                   69.9214                   44.911                    89.2749                   94.8683                   40.05                     55.8659                   13.4164                   98.1529                   108.7796                  81.0247                   74.8131                   70.6116                   100.1699                  77.801                    28.0179                   59.0762                   65.307                    50.6063                   92.358                    37.2156                   19.6469                   25.2982                   52.345                    82.1523                   44.0454                   101.4938                  93.086                    90.5539                   
36                        8.0623                    73.7564                   104.1393                  101.7104                  91.2414                   128.4134                  102.1225                  80.7527                   100.6231                  90.824                    98.1275                   98.4886                   121.499                   15.0333                   86.3481                   105.3233                  71.6938                   85.3756                   38.2099                   123.4909                  93.086                    77.6466                   102.4207                  145.2618                  99.2975                   17.1172                   69.8713                   96.0469                   122.1884                  61.6847                   129.2942                  108.4066                  95.352                    112.0714                  59.4643                   99999.0                   59.4811                   108.4066                  129.3406                  104.1201                  146.1848                  113.031                   97.6729                   61.131                    72.8011                   136.8576                  145.4132                  124.952                   79.6304                   113.8508                  151.3473                  121.0496                  86.122                    23.1948                   8.544                     100.1249                  109.8818                  77.1557                   61.0082                   42.5206                   108.9036                  133.7946                  52.8015                   129.4488                  150.4161                  146.0137                  
37                        61.327                    97.9898                   124.3262                  52.6972                   63.6946                   124.7878                  46.5725                   107.3546                  54.6717                   64.2573                   46.5296                   103.3925                  145.4648                  44.9444                   27.1662                   125.0                     45.8912                   106.6255                  82.134                    71.6938                   41.6773                   115.434                   55.6058                   113.6002                  52.6308                   68.0955                   97.5295                   114.8434                  143.6802                  85.4225                   82.9277                   103.3925                  118.33                    109.2245                  37.0135                   59.4811                   99999.0                   103.3925                  87.2067                   62.9682                   116.4989                  130.7287                  52.4023                   86.3539                   44.3847                   134.7294                  145.4957                  65.7647                   106.8878                  106.9205                  132.6198                  61.8142                   45.0                      72.111                    60.6712                   44.643                    128.0625                  74.1687                   18.4391                   51.4782                   59.6825                   114.9478                  73.8241                   138.4377                  119.4027                  119.708                   
38                        101.5332                  51.923                    47.7598                   81.8596                   46.4866                   21.587                    97.8621                   55.3263                   75.5844                   45.2217                   87.0919                   18.0                      65.192                    100.8464                  107.5174                  47.1699                   58.0                      46.0977                   84.8764                   94.2019                   86.3308                   76.531                    77.3692                   60.208                    76.9675                   96.8762                   57.5674                   42.5793                   60.2163                   55.0727                   82.7587                   0.0                       50.636                    6.3246                    66.7533                   108.4066                  103.3925                  99999.0                   73.2462                   66.3702                   57.4282                   46.6476                   74.3236                   56.8243                   60.0333                   31.4006                   42.107                    126.115                   56.4358                   5.831                     47.0106                   124.3905                  69.3758                   93.4345                   116.6062                  97.1442                   46.0652                   32.2025                   85.1469                   67.2309                   83.3547                   33.2415                   58.1378                   40.3113                   62.3939                   52.0                      
39                        126.1269                  111.6826                  119.365                   35.609                    42.0476                   84.8116                   49.6588                   118.9285                  32.5576                   43.1045                   43.0116                   87.983                    138.2208                  115.5206                  71.5612                   119.0378                  58.2495                   111.6154                  127.0157                  29.0                      46.8615                   138.0507                  31.8277                   34.0588                   34.6554                   127.0984                  115.6936                  112.2943                  133.4054                  106.7052                  11.4018                   73.2462                   119.8541                  78.6448                   69.9214                   129.3406                  87.2067                   73.2462                   99999.0                   25.4951                   39.0                      119.6202                  34.8281                   108.6738                  56.7539                   92.9139                   103.2473                  67.0075                   119.5408                  71.4493                   66.4906                   67.1863                   44.2945                   127.1417                  134.8332                  50.5371                   118.7139                  73.0068                   73.2462                   91.7878                   30.0167                   55.4617                   101.3163                  111.7587                  39.3192                   46.2709                   
40                        101.2028                  94.3663                   107.5639                  17.0294                   23.0217                   83.2166                   34.0588                   102.5768                  11.0454                   24.4131                   24.0832                   77.1557                   128.0039                  90.1388                   51.5461                   107.5174                  34.0147                   96.5194                   104.3887                  29.2062                   25.9615                   120.0167                  12.0416                   51.4782                   13.1529                   102.7035                  97.5756                   99.3579                   123.9072                  87.3155                   26.0                      66.3702                   106.2121                  72.5603                   44.911                    104.1201                  62.9682                   66.3702                   25.4951                   99999.0                   55.0364                   109.7133                  11.7047                   89.1964                   32.1403                   92.6553                   103.7401                  60.1664                   102.9563                  66.6408                   76.531                    58.8218                   18.868                    103.1746                  109.444                   34.0                      108.2081                  55.5698                   48.0104                   68.0074                   17.0                      61.0082                   80.2808                   106.6771                  57.3062                   59.7746                   
41                        141.1559                  107.2287                  104.561                   70.5195                   55.9732                   59.0593                   86.5852                   112.0045                  65.5515                   56.0803                   78.1089                   75.326                    119.6161                  134.4024                  106.4049                  103.8123                  76.4853                   103.0776                  133.4541                  68.0                      80.7775                   133.015                   65.7875                   5.3852                    67.7791                   139.5314                  112.4455                  99.985                    114.0175                  106.8878                  50.0899                   57.4282                   108.0463                  60.4152                   89.2749                   146.1848                  116.4989                  57.4282                   39.0                      55.0364                   99999.0                   101.8332                  66.7083                   108.8531                  76.3806                   64.405                    72.9178                   106.0047                  113.0                     52.9528                   29.5296                   106.1179                  71.5612                   137.884                   153.1176                  87.0919                   101.9215                  74.3303                   99.6393                   104.3168                  66.7083                   26.4008                   105.6504                  87.7097                   5.0                       8.6023                    
42                        105.019                   39.2938                   9.434                     123.4058                  87.4586                   45.0999                   137.8441                  33.541                    117.4436                  86.0523                   127.3146                  32.5576                   18.6011                   111.5437                  142.3517                  8.0623                    91.236                    27.6586                   78.0                      138.6001                  125.3994                  48.8365                   119.4738                  105.3423                  118.4061                  97.1236                   43.6578                   17.1172                   14.2127                   51.6236                   128.6895                  46.6476                   18.868                    42.0476                   94.8683                   113.031                   130.7287                  46.6476                   119.6202                  109.7133                  101.8332                  99999.0                   115.6028                  51.9711                   93.9149                   45.5412                   46.6154                   167.2872                  34.8855                   49.6588                   83.1505                   165.0242                  107.912                   91.7061                   121.5113                  136.7516                  3.1623                    59.0339                   114.4814                  82.2192                   126.2537                  75.6902                   62.1289                   22.8254                   106.6068                  95.0789                   
43                        95.5249                   96.5194                   112.6099                  7.8102                    28.3019                   92.4446                   23.7697                   105.2093                  3.0                       29.6816                   13.1529                   83.2346                   133.544                   83.1986                   39.8497                   112.6987                  31.6228                   100.005                   101.9804                  27.8927                   14.3178                   121.3136                  5.099                     63.0635                   2.8284                    98.0051                   99.1262                   103.9663                  129.8075                  88.1192                   31.9531                   74.3236                   110.3449                  80.6226                   40.05                     97.6729                   52.4023                   74.3236                   34.8281                   11.7047                   66.7083                   115.6028                  99999.0                   89.8944                   29.1204                   102.1078                  113.2652                  51.9711                   105.4372                  75.2728                   87.9659                   50.0899                   12.0416                   99.1262                   102.3572                  23.3452                   113.8508                  58.7963                   38.9102                   64.7765                   12.6491                   72.0625                   79.8499                   114.4945                  68.884                    71.4703                   
44                        53.1601                   13.0                      43.2897                   97.1288                   67.1863                   73.0                      107.2007                  21.587                    92.5743                   65.9697                   98.1835                   41.8688                   62.2013                   60.0083                   104.2353                  44.4072                   58.8303                   24.3311                   29.0                      117.2732                  94.6256                   31.6228                   94.8103                   110.0273                  92.5905                   45.6946                   11.1803                   34.9285                   62.0081                   2.0                       114.0175                  56.8243                   35.0                      58.2495                   55.8659                   61.131                    86.3539                   56.8243                   108.6738                  89.1964                   108.8531                  51.9711                   89.8944                   99999.0                   61.5873                   79.9312                   87.0057                   136.4991                  20.8806                   62.6498                   103.7545                  133.4166                  78.8923                   40.7063                   69.6419                   105.603                   48.8365                   36.0555                   73.4098                   34.8855                   102.4158                  88.6002                   12.53                     68.8767                   113.7717                  105.513                   
45                        69.3758                   69.4262                   89.3588                   35.8469                   20.6155                   81.0555                   46.0109                   78.5175                   32.0156                   20.8087                   36.6197                   63.2456                   110.7881                  59.4811                   48.7032                   89.6939                   2.8284                    74.5185                   72.9932                   57.0088                   33.3017                   93.1933                   34.2053                   74.5185                   31.6228                   70.5762                   71.4003                   80.1561                   107.8239                  59.9083                   58.0775                   60.0333                   85.6037                   66.1211                   13.4164                   72.8011                   44.3847                   60.0333                   56.7539                   32.1403                   76.3806                   93.9149                   29.1204                   61.5873                   99999.0                   91.0494                   102.0049                  75.6637                   78.5684                   63.0714                   89.0056                   72.8629                   17.4642                   71.0634                   78.721                    44.5533                   91.7061                   34.8855                   25.9615                   36.0555                   41.7612                   71.1126                   50.9902                   97.5141                   80.0562                   78.1025                   
46                        129.5415                  71.0634                   52.2015                   109.2016                  75.6637                   10.0                      125.8769                  70.4911                   102.8834                  74.5453                   115.2085                  38.6005                   60.1332                   130.6139                  137.6154                  50.9608                   89.1403                   61.2944                   108.9312                  118.0678                  115.1217                  90.3383                   104.4031                  69.029                    104.5466                  123.8103                  76.8375                   52.7731                   54.1479                   78.5684                   103.7738                  31.4006                   59.6154                   25.9615                   98.1529                   136.8576                  134.7294                  31.4006                   92.9139                   92.6553                   64.405                    45.5412                   102.1078                  79.9312                   91.0494                   99999.0                   11.1803                   152.7645                  71.8679                   28.0                      39.8497                   151.4761                  98.8585                   119.6328                  145.2618                  125.3994                  47.0744                   62.9365                   116.4302                  97.17                     109.444                   38.8973                   84.6286                   25.318                    68.5055                   56.3028                   
47                        137.9275                  77.1038                   54.5894                   120.3329                  86.8332                   21.095                    137.0328                  75.2861                   114.0175                  85.7088                   126.3725                  46.9574                   58.4209                   139.8463                  148.7582                  53.2353                   100.045                   66.5282                   115.8836                  128.8604                  126.3012                  94.0319                   115.5206                  77.7946                   115.6936                  131.7649                  82.7345                   57.0088                   52.469                    85.8021                   114.2366                  42.107                    62.9682                   36.3456                   108.7796                  145.4132                  145.4957                  42.107                    103.2473                  103.7401                  72.9178                   46.6154                   113.2652                  87.0057                   102.0049                  11.1803                   99999.0                   163.8109                  76.6942                   39.0512                   46.1411                   162.5608                  110.0273                  127.3146                  153.8831                  136.565                   48.7545                   73.0068                   127.2517                  106.6255                  120.4865                  48.4149                   92.7847                   24.0416                   76.6942                   64.5368                   
48                        125.9603                  145.0414                  163.8353                  44.2945                   80.2621                   143.3771                  29.7321                   154.1752                  50.5371                   81.6333                   40.0                      135.0741                  185.0                     110.1136                  38.6394                   164.0122                  78.492                    150.0133                  141.778                   38.0132                   42.45                     168.0476                  48.7545                   101.0445                  49.2443                   131.5751                  146.7549                  154.9322                  181.4635                  134.9518                  56.1427                   126.115                   160.8633                  132.382                   81.0247                   124.952                   65.7647                   126.115                   67.0075                   60.1664                   106.0047                  167.2872                  51.9711                   136.4991                  75.6637                   152.7645                  163.8109                  99999.0                   154.2077                  126.7162                  132.6386                  4.0                       59.6657                   134.6291                  126.4358                  31.1127                   165.4237                  109.3435                  67.1193                   105.4751                  43.3244                   119.2393                  125.0                     166.3731                  106.1697                  113.0708                  
49                        71.5681                   9.2195                    25.4951                   113.0044                  80.0625                   67.1193                   124.5793                  1.4142                    107.8981                  78.7147                   114.9783                  38.6394                   42.0119                   80.1561                   123.6002                  26.8328                   75.743                    10.7703                   43.3244                   131.8825                  111.866                   20.0998                   110.1136                  115.1086                  108.2266                  63.1506                   10.0499                   19.799                    42.5793                   21.5407                   126.3171                  56.4358                   16.1555                   55.5428                   74.8131                   79.6304                   106.8878                  56.4358                   119.5408                  102.9563                  113.0                     34.8855                   105.4372                  20.8806                   78.5684                   71.8679                   76.6942                   154.2077                  99999.0                   61.8142                   102.3572                  151.3275                  95.268                    57.4891                   87.9659                   123.1097                  31.7648                   47.4131                   93.1933                   55.5428                   117.5968                  89.6772                   33.2415                   55.3173                   118.0                     108.2266                  
50                        107.0561                  57.5674                   51.6624                   82.6378                   48.0521                   18.0                      98.9798                   60.6712                   76.3217                   46.8722                   88.2326                   23.1948                   68.0                      106.0                     109.7725                  50.9608                   61.2046                   51.3517                   90.6973                   93.7443                   87.8009                   81.8841                   78.0                      56.0446                   77.8332                   102.5329                  63.2456                   47.1699                   62.7694                   60.9016                   81.3941                   5.831                     55.2268                   7.6158                    70.6116                   113.8508                  106.9205                  5.831                     71.4493                   66.6408                   52.9528                   49.6588                   75.2728                   62.6498                   63.0714                   28.0                      39.0512                   126.7162                  61.8142                   99999.0                   41.2311                   125.1599                  71.1969                   99.1564                   122.0041                  98.3717                   49.3964                   37.2156                   88.5664                   72.4017                   83.6301                   28.0179                   63.8905                   40.6079                   57.8705                   47.0956                   
51                        145.1654                  98.6813                   88.0511                   93.3435                   68.942                    38.0526                   110.2225                  101.1385                  87.5728                   68.4471                   100.6032                  63.8905                   99.2975                   141.6757                  127.4755                  87.023                    88.193                    91.6788                   131.3697                  95.0368                   102.2595                  122.2497                  88.3629                   34.8855                   89.6772                   141.651                   104.4031                  85.8429                   93.3809                   101.9657                  77.8781                   47.0106                   93.6483                   46.8402                   100.1699                  151.3473                  132.6198                  47.0106                   66.4906                   76.531                    29.5296                   83.1505                   87.9659                   103.7545                  89.0056                   39.8497                   46.1411                   132.6386                  102.3572                  41.2311                   99999.0                   132.3065                  89.56                     138.8092                  159.1006                  110.3676                  84.0238                   74.5185                   114.5426                  108.8944                  91.0055                   18.0278                   104.0096                  65.0                      32.2025                   21.0238                   
52                        122.1229                  142.1443                  161.4001                  42.5441                   78.2943                   142.0035                  27.2029                   151.3209                  48.8467                   79.6492                   37.7359                   132.9248                  182.628                   106.2309                  34.7131                   161.6045                  75.6902                   147.3228                  138.2353                  38.3275                   39.8246                   164.9242                  47.1699                   101.2423                  47.4236                   127.8124                  143.7533                  152.4336                  179.1787                  131.8939                  56.5685                   124.3905                  158.2561                  130.679                   77.801                    121.0496                  61.8142                   124.3905                  67.1863                   58.8218                   106.1179                  165.0242                  50.0899                   133.4166                  72.8629                   151.4761                  162.5608                  4.0                       151.3275                  125.1599                  132.3065                  99999.0                   57.2014                   130.9236                  122.4827                  28.4253                   163.1104                  106.827                   63.5059                   102.0833                  42.2019                   118.5327                  121.8236                  164.5843                  106.4707                  113.0                     
53                        83.7257                   86.2148                   104.2017                  18.3848                   23.1948                   88.955                    30.0                      95.1315                   15.0333                   24.3311                   19.799                    76.0592                   125.4313                  71.8401                   39.0                      104.4031                  20.1246                   90.5097                   90.0278                   39.8121                   17.4929                   110.4536                  17.1172                   68.6003                   14.3178                   86.0233                   88.4816                   95.268                    122.0369                  77.1751                   43.1741                   69.3758                   101.2373                  75.6902                   28.0179                   86.122                    45.0                      69.3758                   44.2945                   18.868                    71.5612                   107.912                   12.0416                   78.8923                   17.4642                   98.8585                   110.0273                  59.6657                   95.268                    71.1969                   89.56                     57.2014                   99999.0                   87.0919                   91.0934                   28.8444                   105.9481                  49.679                    29.2062                   52.7731                   24.5153                   72.5672                   68.4471                   108.8485                  74.4043                   75.1332                   
54                        15.5242                   52.5547                   82.5651                   104.5801                  86.122                    111.9464                  108.6692                  58.6941                   102.1225                  85.3756                   102.5914                  81.0555                   98.9949                   30.0                      97.0464                   83.8153                   69.1809                   64.2573                   15.0333                   126.5701                  97.8621                   54.4518                   104.1729                  137.7861                  101.2423                  6.0828                    48.0833                   75.0267                   100.02                    41.6773                   129.1395                  93.4345                   73.4983                   96.1769                   59.0762                   23.1948                   72.111                    93.4345                   127.1417                  103.1746                  137.884                   91.7061                   99.1262                   40.7063                   71.0634                   119.6328                  127.3146                  134.6291                  57.4891                   99.1564                   138.8092                  130.9236                  87.0919                   99999.0                   31.0                      106.738                   88.5438                   64.6607                   67.6757                   35.3553                   111.3643                  122.0369                  35.3553                   109.5673                  142.4675                  136.4185                  
55                        16.4924                   82.2253                   112.5877                  105.9056                  97.7548                   136.7516                  105.0428                  89.1067                   105.2616                  97.4166                   101.8332                  106.9439                  129.7575                  19.3132                   87.8237                   113.7805                  77.8267                   93.8616                   46.0109                   127.4245                  96.7471                   85.2877                   106.9626                  152.0132                  103.8123                  25.02                     78.2624                   104.5466                  130.5412                  70.214                    134.2013                  116.6062                  103.7545                  120.3703                  65.307                    8.544                     60.6712                   116.6062                  134.8332                  109.444                   153.1176                  121.5113                  102.3572                  69.6419                   78.721                    145.2618                  153.8831                  126.4358                  87.9659                   122.0041                  159.1006                  122.4827                  91.0934                   31.0                      99999.0                   103.0437                  118.3596                  85.1469                   64.6297                   50.2096                   113.1592                  141.4496                  61.327                    137.9928                  157.2578                  153.2221                  
56                        99.8499                   113.9517                  133.0038                  17.0294                   50.6952                   115.6936                  2.0                       123.0691                  23.0217                   52.0                      10.198                    104.8094                  154.2628                  85.0941                   21.9317                   133.2216                  47.3814                   118.9285                  112.5389                  28.0179                   11.4018                   137.2006                  22.0227                   82.8613                   21.095                    104.3456                  115.7454                  124.0161                  150.8807                  104.0192                  42.8019                   97.1442                   129.8345                  103.465                   50.6063                   100.1249                  44.643                    97.1442                   50.5371                   34.0                      87.0919                   136.7516                  23.3452                   105.603                   44.5533                   125.3994                  136.565                   31.1127                   123.1097                  98.3717                   110.3676                  28.4253                   28.8444                   106.738                   103.0437                  99999.0                   134.7924                  78.4092                   39.4588                   75.5844                   20.6155                   95.0053                   94.3027                   137.0839                  88.5438                   92.7631                   
57                        101.8676                  36.1386                   6.4031                    121.6594                  85.7963                   46.0                      135.9154                  30.4138                   115.7454                  84.386                    125.4313                  31.1448                   19.799                    108.462                   140.0357                  5.0                       89.0056                   24.5153                   74.8465                   137.186                   123.422                   46.0977                   117.7964                  105.3043                  116.6619                  93.9628                   40.4969                   14.0357                   16.1245                   48.5077                   127.6127                  46.0652                   15.8114                   41.7852                   92.358                    109.8818                  128.0625                  46.0652                   118.7139                  108.2081                  101.9215                  3.1623                    113.8508                  48.8365                   91.7061                   47.0744                   48.7545                   165.4237                  31.7648                   49.3964                   84.0238                   163.1104                  105.9481                  88.5438                   118.3596                  134.7924                  99999.0                   56.8243                   111.9464                  79.3095                   124.6515                  75.9276                   59.0762                   25.2389                   106.738                   95.3415                   
58                        70.7248                   39.0                      54.6443                   66.5282                   32.6497                   53.4883                   79.6492                   47.0106                   61.0737                   31.305                    69.4262                   29.2746                   76.0066                   68.7968                   83.3847                   54.9181                   32.2025                   41.2311                   59.1354                   84.5991                   67.0075                   65.146                    63.2535                   74.9533                   61.6198                   67.2012                   42.72                     45.607                    72.9452                   34.0588                   79.1202                   32.2025                   51.6236                   37.0                      37.2156                   77.1557                   74.1687                   32.2025                   73.0068                   55.5698                   74.3303                   59.0339                   58.7963                   36.0555                   34.8855                   62.9365                   73.0068                   109.3435                  47.4131                   37.2156                   74.5185                   106.827                   49.679                    64.6607                   85.1469                   78.4092                   56.8243                   99999.0                   56.7186                   35.2278                   70.6045                   57.4282                   31.3209                   64.2806                   79.1202                   72.0902                   
59                        60.407                    84.0595                   108.6324                  41.4849                   45.618                    106.4707                  41.4367                   93.4933                   41.6293                   46.0977                   37.2156                   85.9884                   130.0                     46.0435                   31.1448                   109.2016                  27.4591                   91.6788                   74.793                    62.8013                   32.1403                   104.0048                  43.0813                   97.0824                   39.9249                   65.0                      84.4038                   99.1615                   127.8124                  72.2011                   70.7743                   85.1469                   103.3151                  91.0494                   19.6469                   61.0082                   18.4391                   85.1469                   73.2462                   48.0104                   99.6393                   114.4814                  38.9102                   73.4098                   25.9615                   116.4302                  127.2517                  67.1193                   93.1933                   88.5664                   114.5426                  63.5059                   29.2062                   67.6757                   64.6297                   39.4588                   111.9464                  56.7186                   99999.0                   39.6232                   48.7647                   96.7729                   61.0737                   120.9339                  102.8251                  102.3426                  
60                        36.8917                   46.8188                   74.8131                   70.8308                   50.9608                   88.1022                   77.3886                   56.0803                   67.7422                   50.2892                   69.8928                   60.1664                   95.3415                   33.6155                   70.7672                   75.6637                   34.0                      56.2939                   37.3631                   92.5743                   65.5515                   64.5368                   69.8713                   103.7545                  67.082                    35.7351                   46.0652                   65.4905                   94.2019                   34.0147                   94.0053                   67.2309                   67.9117                   71.5542                   25.2982                   42.5206                   51.4782                   67.2309                   91.7878                   68.0074                   104.3168                  82.2192                   64.7765                   34.8855                   36.0555                   97.17                     106.6255                  105.4751                  55.5428                   72.4017                   108.8944                  102.0833                  52.7731                   35.3553                   50.2096                   75.5844                   79.3095                   35.2278                   39.6232                   99999.0                   77.2787                   91.2853                   22.3607                   94.0479                   108.706                   103.7304                  
61                        107.1681                  108.7566                  123.7457                  7.2801                    38.8973                   100.09                    19.9249                   117.3243                  9.8489                    40.3113                   13.4536                   93.723                    144.423                   94.2019                   41.6173                   123.7619                  44.2719                   111.8258                  114.5426                  15.2971                   18.0278                   133.7647                  7.6158                    62.3618                   10.198                    110.0409                  111.5078                  115.3126                  140.4635                  100.6231                  23.4307                   83.3547                   121.918                   89.5545                   52.345                    108.9036                  59.6825                   83.3547                   30.0167                   17.0                      66.7083                   126.2537                  12.6491                   102.4158                  41.7612                   109.444                   120.4865                  43.3244                   117.5968                  83.6301                   91.0055                   42.2019                   24.5153                   111.3643                  113.1592                  20.6155                   124.6515                  70.6045                   48.7647                   77.2787                   99999.0                   76.531                    92.477                    123.6649                  68.0074                   72.6911                   
62                        127.7811                  84.9294                   78.9177                   78.0256                   51.264                    32.7567                   95.0474                   88.5664                   72.0                      50.6952                   85.0059                   51.1566                   93.3006                   123.8426                  111.018                   78.0897                   70.2353                   79.3095                   115.382                   82.5651                   86.209                    109.7725                  73.0274                   30.5287                   74.0068                   124.6194                  90.471                    75.06                     87.6641                   86.7295                   66.7083                   33.2415                   83.0963                   35.0571                   82.1523                   133.7946                  114.9478                  33.2415                   55.4617                   61.0082                   26.4008                   75.6902                   72.0625                   88.6002                   71.1126                   38.8973                   48.4149                   119.2393                  89.6772                   28.0179                   18.0278                   118.5327                  72.5672                   122.0369                  141.4496                  95.0053                   75.9276                   57.4282                   96.7729                   91.2853                   76.531                    99999.0                   87.7097                   61.4003                   31.0161                   19.4165                   
63                        45.1774                   24.7386                   54.0093                   86.8159                   59.3043                   76.6942                   95.9635                   33.8378                   82.6378                   58.2151                   87.3212                   46.0435                   73.8241                   49.4975                   92.0217                   55.0                      48.3322                   35.0571                   27.8568                   107.5639                  83.5284                   43.1856                   84.8646                   106.2309                  82.4621                   39.2046                   23.7065                   45.0444                   73.171                    11.7047                   105.7213                  58.1378                   46.3897                   60.8276                   44.0454                   52.8015                   73.8241                   58.1378                   101.3163                  80.2808                   105.6504                  62.1289                   79.8499                   12.53                     50.9902                   84.6286                   92.7847                   125.0                     33.2415                   63.8905                   104.0096                  121.8236                  68.4471                   35.3553                   61.327                    94.3027                   59.0762                   31.3209                   61.0737                   22.3607                   92.477                    87.7097                   99999.0                   76.844                    110.44                    103.2473                  
64                        121.6306                  57.4543                   31.4006                   122.0901                  86.406                    28.6531                   137.884                   53.9073                   115.8361                  85.0882                   127.122                   35.0571                   35.0                      125.8769                  146.0308                  30.0                      95.1262                   46.0435                   96.8969                   134.2721                  126.0873                  71.218                    117.6478                  91.9239                   117.1708                  114.5426                  62.6817                   35.609                    29.0                      68.0294                   121.918                   40.3113                   40.3609                   34.1321                   101.4938                  129.4488                  138.4377                  40.3113                   111.7587                  106.6771                  87.7097                   22.8254                   114.4945                  68.8767                   97.5141                   25.318                    24.0416                   166.3731                  55.3173                   40.6079                   65.0                      164.5843                  108.8485                  109.5673                  137.9928                  137.0839                  25.2389                   64.2806                   120.9339                  94.0479                   123.6649                  61.4003                   76.844                    99999.0                   92.1303                   80.0562                   
65                        145.4991                  112.2185                  109.444                   72.2357                   59.8164                   63.5059                   87.9318                   117.0043                  67.5426                   60.0                      79.8499                   80.3057                   124.3101                  138.4522                  108.3374                  108.683                   80.2808                   108.074                   138.2208                  68.1836                   82.7647                   138.0145                  67.624                    5.831                     69.7782                   144.0278                  117.4266                  104.9381                  118.6802                  111.8034                  50.04                     62.3939                   113.0                     65.307                    93.086                    150.4161                  119.4027                  62.3939                   39.3192                   57.3062                   5.0                       106.6068                  68.884                    113.7717                  80.0562                   68.5055                   76.6942                   106.1697                  118.0                     57.8705                   32.2025                   106.4707                  74.4043                   142.4675                  157.2578                  88.5438                   106.738                   79.1202                   102.8251                  108.706                   68.0074                   31.0161                   110.44                    92.1303                   99999.0                   12.2066                   
66                        140.6165                  102.9563                  98.3107                   75.9276                   57.4891                   51.4782                   92.3959                   107.1681                  70.6045                   57.3847                   83.4326                   70.0                      112.5789                  134.8258                  111.3194                  97.4936                   77.8974                   98.0459                   131.103                   75.1665                   85.7263                   128.316                   71.0634                   13.8924                   72.8011                   138.4233                  108.3421                  94.2603                   106.8925                  103.5809                  57.5587                   52.0                      102.3132                  54.3323                   90.5539                   146.0137                  119.708                   52.0                      46.2709                   59.7746                   8.6023                    95.0789                   71.4703                   105.513                   78.1025                   56.3028                   64.5368                   113.0708                  108.2266                  47.0956                   21.0238                   113.0                     75.1332                   136.4185                  153.2221                  92.7631                   95.3415                   72.0902                   102.3426                  103.7304                  72.6911                   19.4165                   103.2473                  80.0562                   12.2066                   99999.0                   
;
SCALAR TOTAL  /66/;
SCALAR NODES  /60/;
SCALAR W  /2/;
SCALAR Y  /132/;
SCALAR M  /1/;
BINARY VARIABLE X(I,J,K)  x variable ;
INTEGER VARIABLE U(K,O)    u variable ;
VARIABLE   Z         objective ;
EQUATIONS
CON1(K)   constraint 1
CON2(K)   constraint 2
CON3   constraint 3
CON4(O)   constraint 4
CON5(O,K)   constraint 5
CON6(O,K)   constraint 6
CON7(K)   constraint 7
CON10(O,P,K)   constraint 10
CON11(O,K)   constraint 11;
CON1(K).. SUM(O,X(K,O,K)) =E= 1;
CON2(K).. SUM(O,X(O,K,K)) =E= 1;
CON3..  SUM((K,L),X(K,L,K)) =E= 0;
CON4(O) .. SUM(K,X(K,O,K)) + SUM((P,K),X(P,O,K)) =e= W;
CON5(O,K) .. X(K,O,K) + SUM(P,X(P,O,K)) =L= 1;
CON6(O,K) .. X(K,O,K) + SUM(P,X(P,O,K)) - X(O,K,K) - SUM(P,X(O,P,K)) =e= 0;
CON7(K) .. Z =G= SUM(O,C(K,O)*X(K,O,K) + C(O,K)*X(O,K,K)) + SUM((P,O),C(P,O)*X(P,O,K));
CON10(O,P,K) .. U(K,O) - U(K,P) + (TOTAL-1)*X(O,P,K) + (TOTAL-3)*X(P,O,K) =L= (TOTAL-2);
CON11(O,K) .. X(O,O,K) =e= 0;
MODEL TRANSPORT /ALL/;
Option Reslim = 28800;
SOLVE TRANSPORT USING MIP MINIMIZING Z ;
