SET
I  first /1*46/
K(I)  depot1 /1*6/
O(I)  node1 /7*46/
alias(I,J);
alias(K,L);
alias(O,P);
TABLE C(I,J)  node to node
                          1                         2                         3                         4                         5                         6                         7                         8                         9                         10                        11                        12                        13                        14                        15                        16                        17                        18                        19                        20                        21                        22                        23                        24                        25                        26                        27                        28                        29                        30                        31                        32                        33                        34                        35                        36                        37                        38                        39                        40                        41                        42                        43                        44                        45                        46                        
1                         99999.0                   99999.0                   99999.0                   99999.0                   99999.0                   99999.0                   84.4808                   49.0408                   92.1141                   92.6553                   45.2217                   42.2019                   69.7209                   126.4002                  145.8664                  118.8486                  46.2277                   87.7268                   160.3122                  81.4923                   119.2057                  52.0096                   33.541                    89.1852                   104.561                   43.1856                   70.214                    91.9239                   122.0656                  99.905                    101.671                   106.5129                  173.9483                  36.1248                   77.8781                   102.1078                  43.0116                   56.0892                   48.2597                   46.5188                   144.0139                  75.7694                   100.045                   103.8123                  119.0                     155.3222                  
2                         99999.0                   99999.0                   99999.0                   99999.0                   99999.0                   99999.0                   100.449                   17.0294                   64.7611                   93.4773                   82.8734                   59.9333                   76.3675                   94.0                      90.9725                   137.2443                  52.1536                   49.163                    114.2322                  38.0789                   77.1038                   73.0616                   98.6712                   46.9574                   99.2975                   66.2118                   5.3852                    45.4863                   56.8595                   60.0333                   64.0                      43.9318                   123.065                   53.7587                   12.1655                   47.634                    70.7743                   27.5136                   18.868                    88.2326                   113.0177                  108.0463                  40.2492                   38.0789                   57.0088                   109.444                   
3                         99999.0                   99999.0                   99999.0                   99999.0                   99999.0                   99999.0                   121.2642                  47.3814                   73.4098                   109.8772                  110.4219                  86.5852                   97.2471                   93.9202                   73.7631                   156.2082                  75.9276                   55.6058                   102.489                   42.72                     73.0068                   98.3514                   128.8449                  47.8539                   112.5389                  92.8924                   25.9615                   43.2897                   28.4253                   61.7171                   66.1891                   24.1868                   107.0047                  80.1561                   18.2483                   35.6931                   97.7446                   49.8197                   48.3839                   116.1034                  111.5706                  132.7742                  23.7697                   8.0623                    32.0156                   98.2497                   
4                         99999.0                   99999.0                   99999.0                   99999.0                   99999.0                   99999.0                   20.6155                   96.1509                   50.0899                   10.6301                   59.7746                   59.3043                   31.5753                   60.6712                   110.3676                  37.1618                   132.9097                  66.5733                   102.3914                  141.5097                  73.5527                   48.0937                   119.9208                  150.632                   14.3178                   57.0                      108.6002                  149.5125                  128.0156                  66.8506                   63.5689                   108.5587                  121.2023                  126.115                   109.8772                  150.446                   57.2189                   122.1556                  104.6948                  62.7694                   68.0294                   44.5982                   140.8013                  123.2274                  152.3975                  98.656                    
5                         99999.0                   99999.0                   99999.0                   99999.0                   99999.0                   99999.0                   43.1856                   67.2681                   15.1327                   25.9422                   60.6053                   45.793                    26.4008                   41.7253                   80.7527                   72.9452                   109.0183                  30.5287                   81.6333                   109.6586                  44.3847                   43.2782                   114.5469                  118.5327                  28.0179                   47.634                    75.591                    116.7647                  92.1303                   32.3883                   30.0167                   72.5603                   98.8433                   104.2353                  75.7166                   116.2497                  50.9313                   93.3916                   76.2955                   66.0303                   57.6888                   63.7887                   106.0424                  87.3212                   116.7262                  77.026                    
6                         99999.0                   99999.0                   99999.0                   99999.0                   99999.0                   99999.0                   108.9036                  76.4199                   50.636                    90.7083                   116.1809                  93.6056                   89.0056                   52.4023                   25.807                    136.6236                  117.3456                  39.4588                   52.2398                   92.1954                   30.4138                   99.6393                   154.4862                  98.0051                   87.4643                   98.7623                   64.4127                   93.5361                   36.2353                   33.3766                   36.1386                   26.0768                   58.1808                   118.4061                  57.7754                   85.0235                   103.5809                  92.1792                   82.6196                   122.2497                  66.7308                   128.0                     73.0068                   46.0435                   72.8011                   48.0416                   
7                         84.4808                   100.449                   121.2642                  20.6155                   43.1856                   108.9036                  99999.0                   89.6437                   58.3095                   21.5407                   41.3038                   47.0106                   24.2074                   77.1622                   123.199                   37.4433                   121.6306                  71.8401                   119.2183                  136.2351                  86.2844                   33.5261                   101.2028                  145.4545                  33.0151                   43.0116                   105.4751                  145.0965                  133.1953                  75.5381                   73.171                    113.2961                  137.6408                  113.842                   108.2312                  147.9899                  41.7732                   114.5469                  97.4166                   43.4166                   86.954                    24.4131                   139.4633                  125.2996                  153.1013                  115.1347                  
8                         49.0408                   17.0294                   47.3814                   96.1509                   67.2681                   76.4199                   89.6437                   99999.0                   64.0312                   85.9069                   67.5426                   45.8039                   66.2873                   96.5091                   102.0686                  127.0039                  44.3847                   51.6624                   122.1188                  46.6905                   82.6378                   59.6657                   82.28                     55.9017                   93.6056                   51.8652                   22.0227                   55.9732                   73.0548                   63.8905                   67.1863                   58.3095                   132.8796                  42.9418                   29.1548                   61.2944                   56.0803                   26.2488                   9.0554                    72.6154                   115.5725                  94.4034                   55.6597                   54.9181                   73.3485                   117.1836                  
9                         92.1141                   64.7611                   73.4098                   50.0899                   15.1327                   50.636                    58.3095                   64.0312                   99999.0                   40.4969                   72.0694                   53.7587                   40.025                    34.4384                   66.2873                   87.2353                   107.7868                  17.8045                   70.4344                   102.489                   30.8707                   54.5894                   122.0246                  111.0                     39.8246                   57.0088                   68.0074                   108.6324                  78.032                    17.2627                   15.0333                   58.8218                   86.6083                   104.3456                  66.7083                   106.5505                  61.0328                   89.202                    73.0068                   77.8267                   52.811                    78.4092                   95.7183                   74.9667                   104.8046                  65.6049                   
10                        92.6553                   93.4773                   109.8772                  10.6301                   25.9422                   90.7083                   21.5407                   85.9069                   40.4969                   99999.0                   55.0091                   51.0098                   23.0217                   55.6597                   103.0049                  47.0106                   123.5557                  56.4358                   97.719                    131.0267                  66.0076                   41.2311                   114.5862                  140.1321                  13.0384                   49.4975                   98.0051                   138.9568                  118.072                   57.5674                   54.5711                   98.4886                   116.211                   117.0982                  99.2472                   139.8177                  50.448                    112.0045                  94.541                    58.8303                   65.7343                   45.6508                   130.1768                  112.8007                  141.8732                  93.6803                   
11                        45.2217                   82.8734                   110.4219                  59.7746                   60.6053                   116.1809                  41.3038                   67.5426                   72.0694                   55.0091                   99999.0                   24.0832                   35.3836                   102.1763                  136.7041                  73.7564                   87.6584                   76.922                    142.0035                  112.3299                  102.8834                  17.4929                   60.1664                   121.2477                  68.0                      18.0                      88.2553                   122.3315                  130.0961                  86.1626                   85.9069                   111.0045                  158.6474                  78.5493                   93.6803                   128.7983                  13.0                      87.6185                   72.7186                   6.0828                    116.7262                  30.8869                   122.9309                  116.559                   139.7784                  137.2953                  
12                        42.2019                   59.9333                   86.5852                   59.3043                   45.793                    93.6056                   47.0106                   45.8039                   53.7587                   51.0098                   24.0832                   99999.0                   28.0                      86.8332                   115.395                   84.119                    74.6726                   55.0364                   124.0846                  92.0978                   83.6002                   14.2127                   68.8186                   101.2373                  62.514                    6.3246                    65.307                    101.671                   106.0424                  65.5134                   66.0303                   87.0517                   139.6173                  67.1863                   70.2282                   106.8504                  11.1803                   68.7677                   52.345                    30.0167                   103.465                   48.6004                   100.1798                  92.5743                   116.456                   119.2057                  
13                        69.7209                   76.3675                   97.2471                   31.5753                   26.4008                   89.0056                   24.2074                   66.2873                   40.025                    23.0217                   35.3836                   28.0                      99999.0                   67.2012                   106.3015                  60.959                    101.3903                  50.2494                   107.912                   112.6144                  70.5195                   19.2354                   93.0376                   121.8236                  34.9285                   26.6833                   81.3449                   121.2642                  110.44                    56.3205                   54.9181                   90.5207                   125.2398                  94.541                    84.0238                   123.8426                  28.2312                   91.7878                   74.4312                   40.3609                   81.3449                   39.0128                   115.2562                  101.5185                  129.0039                  103.3538                  
14                        126.4002                  94.0                      93.9202                   60.6712                   41.7253                   52.4023                   77.1622                   96.5091                   34.4384                   55.6597                   102.1763                  86.8332                   67.2012                   99999.0                   53.1413                   94.1913                   140.8119                  45.1774                   42.0595                   129.8692                  22.2036                   84.9588                   155.6021                  137.6118                  46.3897                   89.1964                   96.1301                   134.3466                  88.0057                   34.0588                   30.0                      72.8972                   60.6383                   138.0507                  92.7793                   129.4025                  92.6337                   120.337                   105.2236                  107.4477                  19.105                    100.8464                  117.6435                  92.7038                   122.0901                  38.0789                   
15                        145.8664                  90.9725                   73.7631                   110.3676                  80.7527                   25.807                    123.199                   102.0686                  66.2873                   103.0049                  136.7041                  115.395                   106.3015                  53.1413                   99999.0                   145.9863                  143.1223                  60.3738                   32.573                    116.3873                  37.0                      119.5408                  178.8072                  121.5113                  96.7471                   120.0167                  90.05                     116.709                   53.0377                   50.5964                   51.4198                   49.98                     33.2415                   144.2012                  83.1865                   106.7942                  124.6154                  117.8346                  108.4066                  142.678                   60.6053                   144.5337                  95.0368                   68.2495                   91.1373                   29.9666                   
16                        118.8486                  137.2443                  156.2082                  37.1618                   72.9452                   136.6236                  37.4433                   127.0039                  87.2353                   47.0106                   73.7564                   84.119                    60.959                    94.1913                   145.9863                  99999.0                   158.4045                  103.4456                  134.1827                  173.5108                  109.6586                  70.214                    130.0                     182.7266                  49.4773                   79.6241                   142.1443                  182.2224                  165.0606                  104.0                     100.6578                  145.4991                  153.209                   150.2332                  144.3607                  184.5562                  77.6209                   151.9901                  134.8481                  73.6817                   96.8762                   45.0111                   175.5677                  159.5055                  188.218                   131.0343                  
17                        46.2277                   52.1536                   75.9276                   132.9097                  109.0183                  117.3456                  121.6306                  44.3847                   107.7868                  123.5557                  87.6584                   74.6726                   101.3903                  140.8119                  143.1223                  158.4045                  99999.0                   96.0469                   165.605                   43.9318                   126.8109                  88.2383                   67.4685                   49.0408                   133.2216                  78.7909                   53.4135                   53.3385                   104.3504                  108.2405                  111.5706                  95.1315                   175.1371                  10.2956                   60.959                    66.4906                   80.9506                   26.1725                   36.0555                   90.4268                   159.8405                  118.4314                  69.0797                   83.8689                   87.9204                   160.7296                  
18                        87.7268                   49.163                    55.6058                   66.5733                   30.5287                   39.4588                   71.8401                   51.6624                   17.8045                   56.4358                   76.922                    55.0364                   50.2494                   45.1774                   60.3738                   103.4456                  96.0469                   99999.0                   72.8011                   86.122                    31.9061                   60.208                    119.7539                  94.3716                   57.3149                   59.808                    51.788                    91.7061                   61.7414                   12.53                     15.5242                   42.0595                   86.3134                   93.984                    49.6488                   89.0056                   64.5136                   75.1665                   60.208                    82.9699                   64.2806                   89.202                    78.032                    57.28                     87.046                    67.8012                   
19                        160.3122                  114.2322                  102.489                   102.3914                  81.6333                   52.2398                   119.2183                  122.1188                  70.4344                   97.719                    142.0035                  124.0846                  107.912                   42.0595                   32.573                    134.1827                  165.605                   72.8011                   99999.0                   144.1839                  41.1096                   124.5351                  191.6377                  150.2065                  88.0738                   127.4402                  114.4814                  145.7738                  84.8528                   60.4401                   58.7282                   78.3135                   19.0263                   165.0606                  108.6692                  137.0328                  131.4002                  141.7392                  129.7112                  147.5669                  38.4708                   142.8041                  125.064                   98.0459                   122.9187                  5.0                       
20                        81.4923                   38.0789                   42.72                     141.5097                  109.6586                  92.1954                   136.2351                  46.6905                   102.489                   131.0267                  112.3299                  92.0978                   112.6144                  129.8692                  116.3873                  173.5108                  43.9318                   86.122                    144.1839                  99999.0                   111.018                   106.1508                  109.1146                  9.2195                    137.2953                  97.949                    34.4819                   10.4403                   68.7968                   95.8853                   100.1299                  66.4831                   149.6162                  52.1536                   37.1214                   22.561                    101.8283                  25.632                    39.8246                   116.8118                  148.5698                  140.5845                  27.0185                   49.1935                   44.7214                   139.7426                  
21                        119.2057                  77.1038                   73.0068                   73.5527                   44.3847                   30.4138                   86.2844                   82.6378                   30.8707                   66.0076                   102.8834                  83.6002                   70.5195                   22.2036                   37.0                      109.6586                  126.8109                  31.9061                   41.1096                   111.018                   99999.0                   85.4225                   150.6154                  118.2709                  60.208                    87.367                    78.4092                   114.6298                  65.8027                   19.4165                   17.6918                   51.0784                   56.0357                   125.3994                  74.0068                   108.683                   91.586                    104.3456                  90.7579                   108.6738                  38.6005                   108.0602                  96.7729                   71.1688                   100.2247                  36.1248                   
22                        52.0096                   73.0616                   98.3514                   48.0937                   43.2782                   99.6393                   33.5261                   59.6657                   54.5894                   41.2311                   17.4929                   14.2127                   19.2354                   84.9588                   119.5408                  70.214                    88.2383                   60.208                    124.5351                  106.1508                  85.4225                   99999.0                   73.8241                   115.3126                  53.7587                   9.4868                    78.3901                   115.6244                  115.849                   68.9493                   68.542                    96.3328                   141.1559                  80.3243                   82.7647                   120.3703                  9.2195                    82.9759                   66.468                    23.2594                   100.005                   34.9857                   113.2519                  103.846                   128.9496                  119.8165                  
23                        33.541                    98.6712                   128.8449                  119.9208                  114.5469                  154.4862                  101.2028                  82.28                     122.0246                  114.5862                  60.1664                   68.8186                   93.0376                   155.6021                  178.8072                  130.0                     67.4685                   119.7539                  191.6377                  109.1146                  150.6154                  73.8241                   99999.0                   115.6244                  127.3892                  67.2309                   102.8834                  119.2686                  155.3222                  131.5903                  132.9361                  140.0357                  206.0413                  57.7062                   110.7249                  131.0                     64.846                    85.0941                   80.5233                   57.8705                   172.2353                  85.0059                   130.5527                  136.6821                  149.7531                  186.6815                  
24                        89.1852                   46.9574                   47.8539                   150.632                   118.5327                  98.0051                   145.4545                  55.9017                   111.0                     140.1321                  121.2477                  101.2373                  121.8236                  137.6118                  121.5113                  182.7266                  49.0408                   94.3716                   150.2065                  9.2195                    118.2709                  115.3126                  115.6244                  99999.0                   146.2498                  107.0561                  43.0813                   5.6569                    72.0139                   103.7545                  108.0602                  72.0069                   154.7385                  58.0775                   44.911                    20.0                      110.8873                  34.0                      48.9183                   125.6423                  156.1602                  149.683                   28.3019                   53.4509                   43.4166                   145.8801                  
25                        104.561                   99.2975                   112.5389                  14.3178                   28.0179                   87.4643                   33.0151                   93.6056                   39.8246                   13.0384                   68.0                      62.514                    34.9285                   46.3897                   96.7471                   49.4773                   133.2216                  57.3149                   88.0738                   137.2953                  60.208                    53.7587                   127.3892                  146.2498                  99999.0                   61.6117                   103.4456                  144.6271                  117.5968                  55.5698                   51.8845                   98.6002                   106.8878                  127.3185                  103.7304                  144.2671                  62.9365                   119.8541                  102.489                   71.8679                   54.1202                   57.4282                   134.0149                  114.5862                  144.2567                  84.3445                   
26                        43.1856                   66.2118                   92.8924                   57.0                      47.634                    98.7623                   43.0116                   51.8652                   57.0088                   49.4975                   18.0                      6.3246                    26.6833                   89.1964                   120.0167                  79.6241                   78.7909                   59.808                    127.4402                  97.949                    87.367                    9.4868                    67.2309                   107.0561                  61.6117                   99999.0                   71.5891                   107.6151                  112.1116                  69.7711                   69.9714                   93.0054                   143.3911                  70.8378                   76.5506                   113.0177                  5.0                       74.2765                   58.1378                   24.0208                   105.2093                  42.638                    106.4519                  98.8433                   122.7762                  122.6132                  
27                        70.214                    5.3852                    25.9615                   108.6002                  75.591                    64.4127                   105.4751                  22.0227                   68.0074                   98.0051                   88.2553                   65.307                    81.3449                   96.1301                   90.05                     142.1443                  53.4135                   51.788                    114.4814                  34.4819                   78.4092                   78.3901                   102.8834                  43.0813                   103.4456                  71.5891                   99999.0                   41.1825                   53.2353                   62.0725                   66.1891                   41.7732                   122.5398                  55.9732                   8.0623                    42.5206                   76.1577                   27.7849                   22.4722                   93.6056                   115.0391                  113.3711                  34.8855                   33.8378                   51.6624                   109.7679                  
28                        91.9239                   45.4863                   43.2897                   149.5125                  116.7647                  93.5361                   145.0965                  55.9732                   108.6324                  138.9568                  122.3315                  101.671                   121.2642                  134.3466                  116.709                   182.2224                  53.3385                   91.7061                   145.7738                  10.4403                   114.6298                  115.6244                  119.2686                  5.6569                    144.6271                  107.6151                  41.1825                   99999.0                   66.7083                   100.6628                  105.019                   67.4759                   149.9066                  62.0081                   42.0595                   14.4222                   111.6065                  36.0555                   49.6488                   126.9094                  152.7416                  150.2431                  22.8254                   48.5077                   37.8021                   141.5097                  
29                        122.0656                  56.8595                   28.4253                   128.0156                  92.1303                   36.2353                   133.1953                  73.0548                   78.032                    118.072                   130.0961                  106.0424                  110.44                    88.0057                   53.0377                   165.0606                  104.3504                  61.7414                   84.8528                   68.7968                   65.8027                   115.849                   155.3222                  72.0139                   117.5968                  112.1116                  53.2353                   66.7083                   99999.0                   62.2013                   66.2193                   19.9249                   85.2877                   108.4666                  45.1774                   55.0818                   117.1068                  78.2432                   75.5844                   136.0588                  102.9563                  148.4891                  44.0114                   20.5183                   38.1182                   81.3941                   
30                        99.905                    60.0333                   61.7171                   66.8506                   32.3883                   33.3766                   75.5381                   63.8905                   17.2627                   57.5674                   86.1626                   65.5134                   56.3205                   34.0588                   50.5964                   104.0                     108.2405                  12.53                     60.4401                   95.8853                   19.4165                   68.9493                   131.5903                  103.7545                  55.5698                   69.7711                   62.0725                   100.6628                  62.2013                   99999.0                   4.4721                    43.8406                   74.5185                   106.4049                  58.8558                   96.566                    74.2496                   86.7006                   72.2772                   92.1141                   53.0                      95.1315                   85.0882                   61.8547                   91.8368                   55.4437                   
31                        101.671                   64.0                      66.1891                   63.5689                   30.0167                   36.1386                   73.171                    67.1863                   15.0333                   54.5711                   85.9069                   66.0303                   54.9181                   30.0                      51.4198                   100.6578                  111.5706                  15.5242                   58.7282                   100.1299                  17.6918                   68.542                    132.9361                  108.0602                  51.8845                   69.9714                   66.1891                   105.019                   66.2193                   4.4721                    99999.0                   48.1041                   73.6003                   109.444                   63.1506                   101.0198                  74.3034                   90.4489                   75.71                     91.7878                   49.0408                   93.4345                   89.5545                   66.2873                   96.2601                   53.7587                   
32                        106.5129                  43.9318                   24.1868                   108.5587                  72.5603                   26.0768                   113.2961                  58.3095                   58.8218                   98.4886                   111.0045                  87.0517                   90.5207                   72.8972                   49.98                     145.4991                  95.1315                   42.0595                   78.3135                   66.4831                   51.0784                   96.3328                   140.0357                  72.0069                   98.6002                   93.0054                   41.7732                   67.4759                   19.9249                   43.8406                   48.1041                   99999.0                   83.1685                   97.591                    34.2053                   59.1354                   98.0051                   69.2026                   62.6259                   117.0171                  89.5377                   128.6546                  47.0956                   20.3961                   49.1935                   74.108                    
33                        173.9483                  123.065                   107.0047                  121.2023                  98.8433                   58.1808                   137.6408                  132.8796                  86.6083                   116.211                   158.6474                  139.6173                  125.2398                  60.6383                   33.2415                   153.209                   175.1371                  86.3134                   19.0263                   149.6162                  56.0357                   141.1559                  206.0413                  154.7385                  106.8878                  143.3911                  122.5398                  149.9066                  85.2877                   74.5185                   73.6003                   83.1685                   99999.0                   175.5705                  115.9526                  139.7426                  147.5669                  150.2664                  139.8177                  164.3472                  57.2189                   160.9752                  128.082                   101.415                   123.065                   22.561                    
34                        36.1248                   53.7587                   80.1561                   126.115                   104.2353                  118.4061                  113.842                   42.9418                   104.3456                  117.0982                  78.5493                   67.1863                   94.541                    138.0507                  144.2012                  150.2332                  10.2956                   93.984                    165.0606                  52.1536                   125.3994                  80.3243                   57.7062                   58.0775                   127.3185                  70.8378                   55.9732                   62.0081                   108.4666                  106.4049                  109.444                   97.591                    175.5705                  99999.0                   63.8905                   74.5453                   72.6154                   30.8707                   35.805                    81.0247                   156.9235                  109.4166                  75.9605                   88.2043                   95.0789                   160.125                   
35                        77.8781                   12.1655                   18.2483                   109.8772                  75.7166                   57.7754                   108.2312                  29.1548                   66.7083                   99.2472                   93.6803                   70.2282                   84.0238                   92.7793                   83.1865                   144.3607                  60.959                    49.6488                   108.6692                  37.1214                   74.0068                   82.7647                   110.7249                  44.911                    103.7304                  76.5506                   8.0623                    42.0595                   45.1774                   58.8558                   63.1506                   34.2053                   115.9526                  63.8905                   99999.0                   40.6079                   81.2712                   35.0                      30.4631                   99.2018                   111.4495                  117.618                   31.241                    25.9615                   46.2385                   104.0481                  
36                        102.1078                  47.634                    35.6931                   150.446                   116.2497                  85.0235                   147.9899                  61.2944                   106.5505                  139.8177                  128.7983                  106.8504                  123.8426                  129.4025                  106.7942                  184.5562                  66.4906                   89.0056                   137.0328                  22.561                    108.683                   120.3703                  131.0                     20.0                      144.2671                  113.0177                  42.5206                   14.4222                   55.0818                   96.566                    101.0198                  59.1354                   139.7426                  74.5453                   40.6079                   99999.0                   117.3371                  46.1736                   56.648                    133.7535                  147.2209                  155.3222                  12.0416                   39.0                      23.4307                   133.0                     
37                        43.0116                   70.7743                   97.7446                   57.2189                   50.9313                   103.5809                  41.7732                   56.0803                   61.0328                   50.448                    13.0                      11.1803                   28.2312                   92.6337                   124.6154                  77.6209                   80.9506                   64.5136                   131.4002                  101.8283                  91.586                    9.2195                    64.846                    110.8873                  62.9365                   5.0                       76.1577                   111.6065                  117.1068                  74.2496                   74.3034                   98.0051                   147.5669                  72.6154                   81.2712                   117.3371                  99999.0                   77.7946                   62.0081                   19.0263                   108.2312                  38.8973                   110.982                   103.7545                  127.4716                  126.6057                  
38                        56.0892                   27.5136                   49.8197                   122.1556                  93.3916                   92.1792                   114.5469                  26.2488                   89.202                    112.0045                  87.6185                   68.7677                   91.7878                   120.337                   117.8346                  151.9901                  26.1725                   75.1665                   141.7392                  25.632                    104.3456                  82.9759                   85.0941                   34.0                      119.8541                  74.2765                   27.7849                   36.0555                   78.2432                   86.7006                   90.4489                   69.2026                   150.2664                  30.8707                   35.0                      46.1736                   77.7946                   99999.0                   17.4642                   91.8368                   139.4346                  116.6919                  45.7056                   57.8014                   64.9384                   136.9562                  
39                        48.2597                   18.868                    48.3839                   104.6948                  76.2955                   82.6196                   97.4166                   9.0554                    73.0068                   94.541                    72.7186                   52.345                    74.4312                   105.2236                  108.4066                  134.8481                  36.0555                   60.208                    129.7112                  39.8246                   90.7579                   66.468                    80.5233                   48.9183                   102.489                   58.1378                   22.4722                   49.6488                   75.5844                   72.2772                   75.71                     62.6259                   139.8177                  35.805                    30.4631                   56.648                    62.0081                   17.4642                   99999.0                   77.4145                   124.3101                  100.7671                  52.6118                   56.3028                   71.1758                   124.8119                  
40                        46.5188                   88.2326                   116.1034                  62.7694                   66.0303                   122.2497                  43.4166                   72.6154                   77.8267                   58.8303                   6.0828                    30.0167                   40.3609                   107.4477                  142.678                   73.6817                   90.4268                   82.9699                   147.5669                  116.8118                  108.6738                  23.2594                   57.8705                   125.6423                  71.8679                   24.0208                   93.6056                   126.9094                  136.0588                  92.1141                   91.7878                   117.0171                  164.3472                  81.0247                   99.2018                   133.7535                  19.0263                   91.8368                   77.4145                   99999.0                   121.6224                  29.4109                   128.1601                  122.3315                  145.2067                  142.8881                  
41                        144.0139                  113.0177                  111.5706                  68.0294                   57.6888                   66.7308                   86.954                    115.5725                  52.811                    65.7343                   116.7262                  103.465                   81.3449                   19.105                    60.6053                   96.8762                   159.8405                  64.2806                   38.4708                   148.5698                  38.6005                   100.005                   172.2353                  156.1602                  54.1202                   105.2093                  115.0391                  152.7416                  102.9563                  53.0                      49.0408                   89.5377                   57.2189                   156.9235                  111.4495                  147.2209                  108.2312                  139.4346                  124.3101                  121.6224                  99999.0                   111.3059                  135.3403                  109.7315                  138.5388                  36.4005                   
42                        75.7694                   108.0463                  132.7742                  44.5982                   63.7887                   128.0                     24.4131                   94.4034                   78.4092                   45.6508                   30.8869                   48.6004                   39.0128                   100.8464                  144.5337                  45.0111                   118.4314                  89.202                    142.8041                  140.5845                  108.0602                  34.9857                   85.0059                   149.683                   57.4282                   42.638                    113.3711                  150.2431                  148.4891                  95.1315                   93.4345                   128.6546                  160.9752                  109.4166                  117.618                   155.3222                  38.8973                   116.6919                  100.7671                  29.4109                   111.3059                  99999.0                   148.2228                  137.8985                  163.7193                  138.5785                  
43                        100.045                   40.2492                   23.7697                   140.8013                  106.0424                  73.0068                   139.4633                  55.6597                   95.7183                   130.1768                  122.9309                  100.1798                  115.2562                  117.6435                  95.0368                   175.5677                  69.0797                   78.032                    125.064                   27.0185                   96.7729                   113.2519                  130.5527                  28.3019                   134.0149                  106.4519                  34.8855                   22.8254                   44.0114                   85.0882                   89.5545                   47.0956                   128.082                   75.9605                   31.241                    12.0416                   110.982                   45.7056                   52.6118                   128.1601                  135.3403                  148.2228                  99999.0                   27.0185                   19.2354                   121.0041                  
44                        103.8123                  38.0789                   8.0623                    123.2274                  87.3212                   46.0435                   125.2996                  54.9181                   74.9667                   112.8007                  116.559                   92.5743                   101.5185                  92.7038                   68.2495                   159.5055                  83.8689                   57.28                     98.0459                   49.1935                   71.1688                   103.846                   136.6821                  53.4509                   114.5862                  98.8433                   33.8378                   48.5077                   20.5183                   61.8547                   66.2873                   20.3961                   101.415                   88.2043                   25.9615                   39.0                      103.7545                  57.8014                   56.3028                   122.3315                  109.7315                  137.8985                  27.0185                   99999.0                   30.0                      94.0                      
45                        119.0                     57.0088                   32.0156                   152.3975                  116.7262                  72.8011                   153.1013                  73.3485                   104.8046                  141.8732                  139.7784                  116.456                   129.0039                  122.0901                  91.1373                   188.218                   87.9204                   87.046                    122.9187                  44.7214                   100.2247                  128.9496                  149.7531                  43.4166                   144.2567                  122.7762                  51.6624                   37.8021                   38.1182                   91.8368                   96.2601                   49.1935                   123.065                   95.0789                   46.2385                   23.4307                   127.4716                  64.9384                   71.1758                   145.2067                  138.5388                  163.7193                  19.2354                   30.0                      99999.0                   119.365                   
46                        155.3222                  109.444                   98.2497                   98.656                    77.026                    48.0416                   115.1347                  117.1836                  65.6049                   93.6803                   137.2953                  119.2057                  103.3538                  38.0789                   29.9666                   131.0343                  160.7296                  67.8012                   5.0                       139.7426                  36.1248                   119.8165                  186.6815                  145.8801                  84.3445                   122.6132                  109.7679                  141.5097                  81.3941                   55.4437                   53.7587                   74.108                    22.561                    160.125                   104.0481                  133.0                     126.6057                  136.9562                  124.8119                  142.8881                  36.4005                   138.5785                  121.0041                  94.0                      119.365                   99999.0                   
;
SCALAR TOTAL  /46/;
SCALAR NODES  /40/;
SCALAR W  /2/;
SCALAR Y  /92/;
SCALAR M  /1/;
BINARY VARIABLE X(I,J,K)  x variable ;
INTEGER VARIABLE U(K,O)    u variable ;
VARIABLE   Z         objective ;
EQUATIONS
CON1(K)   constraint 1
CON2(K)   constraint 2
CON3   constraint 3
CON4(O)   constraint 4
CON5(O,K)   constraint 5
CON6(O,K)   constraint 6
CON7(K)   constraint 7
CON10(O,P,K)   constraint 10
CON11(O,K)   constraint 11;
CON1(K).. SUM(O,X(K,O,K)) =E= 1;
CON2(K).. SUM(O,X(O,K,K)) =E= 1;
CON3..  SUM((K,L),X(K,L,K)) =E= 0;
CON4(O) .. SUM(K,X(K,O,K)) + SUM((P,K),X(P,O,K)) =e= W;
CON5(O,K) .. X(K,O,K) + SUM(P,X(P,O,K)) =L= 1;
CON6(O,K) .. X(K,O,K) + SUM(P,X(P,O,K)) - X(O,K,K) - SUM(P,X(O,P,K)) =e= 0;
CON7(K) .. Z =G= SUM(O,C(K,O)*X(K,O,K) + C(O,K)*X(O,K,K)) + SUM((P,O),C(P,O)*X(P,O,K));
CON10(O,P,K) .. U(K,O) - U(K,P) + (TOTAL-1)*X(O,P,K) + (TOTAL-3)*X(P,O,K) =L= (TOTAL-2);
CON11(O,K) .. X(O,O,K) =e= 0;
MODEL TRANSPORT /ALL/;
Option Reslim = 28800;
SOLVE TRANSPORT USING MIP MINIMIZING Z ;
