SET
I  first /1*56/
K(I)  depot1 /1*6/
O(I)  node1 /7*56/
alias(I,J);
alias(K,L);
alias(O,P);
TABLE C(I,J)  node to node
                          1                         2                         3                         4                         5                         6                         7                         8                         9                         10                        11                        12                        13                        14                        15                        16                        17                        18                        19                        20                        21                        22                        23                        24                        25                        26                        27                        28                        29                        30                        31                        32                        33                        34                        35                        36                        37                        38                        39                        40                        41                        42                        43                        44                        45                        46                        47                        48                        49                        50                        51                        52                        53                        54                        55                        56                        
1                         99999.0                   99999.0                   99999.0                   99999.0                   99999.0                   99999.0                   150.0833                  42.9535                   59.0339                   66.3702                   118.6086                  95.4149                   93.6056                   88.0057                   84.8999                   125.6065                  100.6578                  86.5563                   71.5891                   95.5249                   133.6899                  34.176                    106.4049                  61.7171                   39.2173                   91.0824                   55.0273                   118.5116                  152.7514                  135.1037                  79.1581                   126.5069                  84.2021                   121.3342                  88.1192                   37.2156                   133.9888                  99.4636                   43.9659                   121.1487                  60.4152                   52.3927                   124.2014                  131.3659                  72.8011                   16.6433                   136.0331                  107.8564                  94.9368                   122.9715                  123.2234                  77.1038                   67.0075                   88.8426                   47.1699                   89.0505                   
2                         99999.0                   99999.0                   99999.0                   99999.0                   99999.0                   99999.0                   92.3147                   41.4005                   86.4523                   22.0907                   60.3738                   66.0984                   118.8486                  27.7849                   19.3132                   82.7647                   127.4402                  51.6236                   15.0333                   113.1459                  86.6487                   32.1403                   87.6413                   100.3195                  38.8973                   50.0899                   35.1141                   127.4127                  98.1835                   87.9204                   87.046                    84.5281                   53.6004                   128.7051                  67.0671                   29.1548                   98.326                    33.7343                   22.0907                   57.7062                   28.4429                   54.2033                   69.4622                   88.295                    29.6142                   50.3587                   94.1488                   130.2306                  32.5269                   140.8581                  67.4166                   23.0217                   28.2312                   109.1238                  25.4951                   23.3452                   
3                         99999.0                   99999.0                   99999.0                   99999.0                   99999.0                   99999.0                   72.0902                   66.8506                   111.6647                  38.8973                   40.0                      73.2393                   141.0319                  19.9249                   12.1655                   77.1038                   149.5861                  59.6657                   30.6757                   133.4054                  77.026                    62.514                    96.2601                   126.9212                  65.8635                   50.636                    56.6392                   143.628                   80.6536                   78.0064                   106.7801                  79.2465                   63.7024                   144.2567                  78.5684                   59.203                    95.5667                   3.6056                    52.469                    30.4138                   48.1041                   78.1857                   55.2268                   81.6149                   43.2666                   80.7527                   87.5728                   150.8807                  19.3132                   159.4553                  52.345                    29.4109                   46.0652                   130.5105                  52.7731                   7.0711                    
4                         99999.0                   99999.0                   99999.0                   99999.0                   99999.0                   99999.0                   119.8207                  123.0813                  44.5982                   123.6649                  159.8124                  52.0                      34.7851                   129.8345                  110.3087                  77.1038                   40.4475                   62.1289                   92.8493                   21.8403                   88.0511                   92.3472                   35.0143                   55.2178                   117.72                    153.701                   127.3892                  23.4307                   114.0395                  89.0225                   21.0238                   76.0263                   57.4282                   24.6982                   43.0465                   101.5135                  69.2315                   121.3796                  94.9368                   150.0833                  125.6742                  54.7083                   98.2344                   80.0062                   77.7946                   91.5478                   80.3057                   36.1248                   103.6002                  39.8246                   100.0                     127.063                   76.6942                   25.5539                   112.5389                  115.9741                  
5                         99999.0                   99999.0                   99999.0                   99999.0                   99999.0                   99999.0                   89.202                    98.1275                   50.0899                   92.6984                   124.5793                  18.0                      63.6396                   95.6922                   75.2861                   49.6488                   71.3863                   26.0768                   58.8303                   52.8867                   60.4401                   68.0294                   19.6469                   66.8506                   93.0484                   121.6717                  99.6393                   58.8982                   85.703                    61.6847                   29.0172                   49.3964                   21.4009                   59.4138                   7.2801                    76.0592                   50.3289                   85.6329                   67.4759                   114.2147                  96.3016                   34.5398                   65.192                    54.231                    43.2666                   73.7631                   56.8243                   69.8928                   67.624                    75.8024                   66.4831                   94.3663                   43.382                    52.469                    85.0                      80.8084                   
6                         99999.0                   99999.0                   99999.0                   99999.0                   99999.0                   99999.0                   28.8444                   106.5082                  110.6526                  83.7735                   84.1724                   48.0521                   129.4025                  69.8713                   50.9215                   31.6228                   137.1167                  43.1856                   52.4976                   118.4567                  27.8927                   88.6172                   66.6408                   127.8828                  103.6002                  100.8415                  99.7647                   120.0167                  33.0151                   28.6356                   94.4299                   33.8378                   48.0937                   119.4362                  58.5491                   90.5539                   50.774                    48.0416                   80.6102                   67.6757                   92.1358                   81.0432                   5.0                       34.4384                   48.5489                   104.6231                  39.9249                   135.0926                  34.176                    138.928                   2.2361                    77.201                    54.3783                   118.2286                  90.4434                   52.3927                   
7                         150.0833                  92.3147                   72.0902                   119.8207                  89.202                    28.8444                   99999.0                   133.6862                  136.8941                  109.078                   98.1275                   71.2531                   152.0296                  91.9239                   76.0066                   43.1741                   159.2011                  69.9214                   80.6226                   140.2284                  32.8938                   117.2902                  85.0                      154.1493                  131.1373                  121.758                   125.9246                  137.7679                  12.083                    32.311                    118.2074                  44.643                    74.4648                   136.5613                  82.3893                   118.8276                  57.7062                   69.0797                   109.0413                  80.025                    117.8855                  108.8485                  26.4008                   41.7852                   77.3886                   133.4541                  44.2945                   155.9295                  60.0                      157.496                   26.9258                   101.0742                  83.2166                   141.0035                  117.7964                  76.0592                   
8                         42.9535                   41.4005                   66.8506                   123.0813                  98.1275                   106.5082                  133.6862                  99999.0                   90.9725                   29.1548                   79.2275                   98.8585                   126.7793                  52.5547                   58.7282                   121.4907                  134.7924                  85.703                    54.5894                   125.2198                  126.6254                  30.8058                   117.0                     99.0858                   5.3852                    48.5077                   13.0                      144.9                     139.5206                  127.9531                  102.7862                  123.0325                  85.8429                   147.0544                  96.0208                   22.0907                   135.0926                  70.4557                   31.1448                   85.44                     20.6155                   68.4105                   110.6752                  127.2242                  64.846                    36.7967                   132.8533                  140.2926                  73.7564                   153.8473                  108.7244                  40.4969                   60.6383                   119.4738                  16.1245                   60.6053                   
9                         59.0339                   86.4523                   111.6647                  44.5982                   50.0899                   110.6526                  136.8941                  90.9725                   99999.0                   100.7671                  146.7685                  66.7308                   35.8469                   114.2366                  99.7246                   99.5389                   43.8292                   67.4759                   80.9938                   36.4966                   110.1363                  62.9682                   64.6607                   17.2627                   85.703                    130.9695                  98.7168                   60.0                      134.7665                  111.4271                  26.4008                   99.4032                   62.6498                   63.0317                   55.7136                   72.2496                   99.5691                   113.842                   69.527                    141.8732                  99.7046                   33.5261                   111.3059                  104.2785                  70.406                    55.0091                   106.8925                  49.6588                   100.02                    64.195                    111.8794                  107.6476                  66.2193                   29.8329                   84.8999                   105.4751                  
10                        66.3702                   22.0907                   38.8973                   123.6649                  92.6984                   83.7735                   109.078                   29.1548                   100.7671                  99999.0                   52.2398                   88.1192                   135.0592                  23.4094                   33.121                    104.0865                  143.5444                  73.6817                   37.0135                   130.7287                  107.2007                  38.9487                   109.3846                  112.6055                  29.6142                   30.4795                   17.8045                   146.8128                  116.2755                  108.4159                  105.4372                  105.9292                  75.505                    148.3543                  88.6002                   31.0161                   120.1499                  42.45                     31.241                    56.5155                   9.2195                    71.0634                   88.3912                   109.4897                  51.6236                   54.4059                   115.4123                  147.3228                  49.6588                   159.0126                  86.0058                   11.4018                   49.7293                   126.0635                  19.2354                   33.4215                   
11                        118.6086                  60.3738                   40.0                      159.8124                  124.5793                  84.1724                   98.1275                   79.2275                   146.7685                  52.2398                   99999.0                   113.2254                  178.3536                  32.6956                   49.5177                   114.1622                  186.9545                  99.6393                   67.624                    171.6421                  112.058                   89.2861                   136.2424                  160.6393                  81.0062                   36.7151                   66.2722                   183.142                   109.0                     112.8051                  145.0862                  116.3787                  103.5857                  183.8967                  118.4441                  82.5651                   133.1953                  39.9625                   80.0062                   18.2483                   59.0085                   114.057                   89.0505                   118.0042                  82.0731                   106.099                   123.7619                  189.0106                  58.8303                   198.3986                  85.9069                   41.7732                   83.8689                   168.2171                  71.4493                   43.8406                   
12                        95.4149                   66.0984                   73.2393                   52.0                      18.0                      48.0521                   71.2531                   98.8585                   66.7308                   88.1192                   113.2254                  99999.0                   81.4985                   86.8159                   65.2993                   33.121                    89.1067                   14.5602                   51.6624                   70.406                    43.4626                   70.8802                   23.0217                   83.8153                   94.2019                   115.1347                  98.0                      73.5731                   68.1542                   44.7772                   47.0106                   33.2866                   13.0384                   73.4983                   11.1803                   77.4661                   38.5876                   73.4098                   67.7422                   101.1781                  93.2631                   44.5533                   47.2652                   38.2753                   36.4966                   80.5295                   41.8688                   87.0919                   54.6717                   91.7061                   48.6621                   87.6413                   39.0128                   70.3491                   84.1487                   70.3278                   
13                        93.6056                   118.8486                  141.0319                  34.7851                   63.6396                   129.4025                  152.0296                  126.7793                  35.8469                   135.0592                  178.3536                  81.4985                   99999.0                   146.4001                  129.6534                  110.2225                  8.6023                    88.0568                   110.982                   13.0                      121.2642                  98.2344                   68.7314                   34.0147                   121.4907                  165.4872                  134.2013                  34.1321                   147.2175                  122.3315                  35.4401                   109.3709                  82.9699                   37.7359                   70.859                    107.6151                  103.8123                  142.706                   104.0048                  171.4322                  134.7145                  64.6607                   128.7633                  113.6354                  97.949                    90.824                    114.4246                  14.3178                   126.7162                  30.0666                   130.1153                  141.0142                  95.0158                   11.1803                   120.1041                  135.4843                  
14                        88.0057                   27.7849                   19.9249                   129.8345                  95.6922                   69.8713                   91.9239                   52.5547                   114.2366                  23.4094                   32.6956                   86.8159                   146.4001                  99999.0                   21.8403                   95.2575                   155.0                     72.45                     37.0135                   140.264                   96.0833                   57.0701                   109.5673                  127.9531                  52.8867                   31.0644                   40.7063                   153.2645                  100.5783                  97.1288                   113.8991                  97.3293                   75.6637                   154.3017                  90.2109                   51.0882                   113.1371                  22.8473                   47.5395                   33.3766                   32.2025                   81.8413                   74.8131                   100.08                    52.4309                   74.4312                   106.0754                  157.4929                  37.0135                   167.5858                  72.0069                   12.083                    53.1507                   136.4991                  41.3038                   18.0278                   
15                        84.8999                   19.3132                   12.1655                   110.3087                  75.2861                   50.9215                   76.0066                   58.7282                   99.7246                   33.121                    49.5177                   65.2993                   129.6534                  21.8403                   99999.0                   74.0068                   138.2317                  51.1077                   18.7883                   122.4132                  75.6637                   50.9902                   88.193                    114.8434                  57.0088                   52.1536                   50.0                      133.66                    83.1925                   76.7919                   95.8019                   76.0263                   54.6443                   134.4693                  69.4046                   48.4665                   91.5478                   15.0                      41.0                      42.1545                   41.8808                   66.3099                   55.6597                   79.0253                   32.5576                   69.2315                   85.0235                   139.8463                  16.7631                   148.9228                  53.1413                   26.4764                   34.6699                   119.2686                  43.6005                   5.831                     
16                        125.6065                  82.7647                   77.1038                   77.1038                   49.6488                   31.6228                   43.1741                   121.4907                  99.5389                   104.0865                  114.1622                  33.121                    110.2225                  95.2575                   74.0068                   99999.0                   117.0171                  39.0512                   67.9117                   98.0204                   11.0454                   97.2471                   42.107                    116.456                   117.5457                  126.0992                  117.6308                  94.5939                   37.0135                   12.1655                   77.8781                   2.2361                    41.7253                   93.4077                   43.8634                   101.9804                  19.2354                   75.71                     91.7061                   98.4886                   111.198                   76.8375                   27.6586                   5.831                     56.8595                   109.8089                  11.4018                   113.2166                  58.3095                   114.3372                  30.6105                   100.08                    61.7171                   99.4082                   105.622                   77.2334                   
17                        100.6578                  127.4402                  149.5861                  40.4475                   71.3863                   137.1167                  159.2011                  134.7924                  43.8292                   143.5444                  186.9545                  89.1067                   8.6023                    155.0                     138.2317                  117.0171                  99999.0                   96.1665                   119.5701                  19.0                      128.0352                  106.527                   75.1665                   39.8121                   129.5299                  173.954                   142.436                   34.6554                   154.0292                  129.062                   43.6578                   116.0689                  91.0934                   38.1838                   78.6448                   115.8836                  109.6586                  151.2382                  112.45                    179.9806                  143.0874                  73.2462                   136.3305                  120.204                   106.4707                  98.6154                   120.7021                  9.8489                    135.1481                  25.4951                   137.7679                  149.5761                  103.5857                  19.3132                   128.4251                  144.0625                  
18                        86.5563                   51.6236                   59.6657                   62.1289                   26.0768                   43.1856                   69.9214                   85.703                    67.4759                   73.6817                   99.6393                   14.5602                   88.0568                   72.45                     51.1077                   39.0512                   96.1665                   99999.0                   37.108                    78.1857                   47.5079                   59.0931                   37.1214                   84.7172                   81.2527                   100.5783                  84.0952                   84.8116                   69.3181                   48.9183                   52.6308                   40.0                      5.099                     85.1469                   19.2094                   64.846                    49.6488                   60.1415                   54.8179                   88.459                    79.0569                   39.3573                   43.9318                   44.8219                   22.0907                   70.8025                   49.6488                   95.462                    41.7732                   101.8725                  44.4072                   73.0821                   25.1794                   76.922                    70.5762                   56.3028                   
19                        71.5891                   15.0333                   30.6757                   92.8493                   58.8303                   52.4976                   80.6226                   54.5894                   80.9938                   37.0135                   67.624                    51.6624                   110.982                   37.0135                   18.7883                   67.9117                   119.5701                  37.108                    99999.0                   104.0192                  72.2357                   37.5899                   73.736                    96.3016                   51.3128                   63.5689                   49.7293                   116.2755                  85.4283                   73.5391                   77.4661                   69.6348                   39.5601                   117.2902                  53.6656                   38.2099                   83.2947                   32.9848                   28.6007                   60.9262                   43.4166                   47.5395                   56.4004                   73.4983                   15.6525                   55.1543                   79.3095                   121.4002                  23.4094                   130.9084                  54.6717                   36.0555                   16.2788                   100.6876                  38.4708                   24.5967                   
20                        95.5249                   113.1459                  133.4054                  21.8403                   52.8867                   118.4567                  140.2284                  125.2198                  36.4966                   130.7287                  171.6421                  70.406                    13.0                      140.264                   122.4132                  98.0204                   19.0                      78.1857                   104.0192                  99999.0                   109.0413                  95.5249                   56.2228                   40.5216                   119.8541                  161.1986                  131.5485                  24.7386                   135.0333                  110.0727                  26.6271                   97.0824                   73.1642                   28.1603                   60.1664                   104.9571                  91.0055                   134.8332                  100.2098                  163.6704                  131.244                   59.6657                   117.5457                  101.2423                  90.1388                   90.4765                   101.8332                  17.4929                   118.1186                  28.6531                   119.0504                  135.794                   87.8009                   7.0711                    117.047                   128.2225                  
21                        133.6899                  86.6487                   77.026                    88.0511                   60.4401                   27.8927                   32.8938                   126.6254                  110.1363                  107.2007                  112.058                   43.4626                   121.2642                  96.0833                   75.6637                   11.0454                   128.0352                  47.5079                   72.2357                   109.0413                  99999.0                   104.0433                  53.0377                   127.1377                  122.9837                  127.1417                  121.758                   105.119                   26.0                      1.4142                    88.8426                   12.0416                   50.8035                   103.8123                  54.4243                   108.0463                  25.6125                   75.1665                   97.7548                   95.5092                   114.8434                  86.267                    23.0868                   8.9443                    62.9682                   117.5925                  12.8062                   124.1451                  59.2115                   124.952                   26.2488                   102.1078                  68.2422                   110.4536                  110.5712                  78.1601                   
22                        34.176                    32.1403                   62.514                    92.3472                   68.0294                   88.6172                   117.2902                  30.8058                   62.9682                   38.9487                   89.2861                   70.8802                   98.2344                   57.0701                   50.9902                   97.2471                   106.527                   59.0931                   37.5899                   95.5249                   104.0433                  99999.0                   87.2812                   73.8173                   25.4951                   68.4105                   36.0555                   114.3897                  120.9173                  105.4372                  72.2357                   98.4886                   58.1893                   116.456                   66.6108                   9.434                     108.6324                  65.7647                   10.0499                   89.202                    36.7967                   37.6431                   91.9674                   103.0776                  41.2311                   18.2483                   108.3005                  111.252                   60.8358                   124.1692                  90.6863                   47.7598                   35.805                    90.1388                   21.9317                   55.4437                   
23                        106.4049                  87.6413                   96.2601                   35.0143                   19.6469                   66.6408                   85.0                      117.0                     64.6607                   109.3846                  136.2424                  23.0217                   68.7314                   109.5673                  88.193                    42.107                    75.1665                   37.1214                   73.736                    56.2228                   53.0377                   87.2812                   99999.0                   80.1561                   112.0179                  137.2953                  117.72                    53.4883                   79.0253                   54.0093                   39.4462                   41.0122                   34.176                    52.8015                   21.095                    95.0211                   35.8469                   96.4002                   86.0523                   123.9879                  113.7717                  54.0833                   64.622                    45.0444                   58.1893                   93.4077                   45.7056                   71.1126                   77.6209                   72.8011                   66.7083                   109.7862                  59.6657                   58.2495                   103.3102                  93.2952                   
24                        61.7171                   100.3195                  126.9212                  55.2178                   66.8506                   127.8828                  154.1493                  99.0858                   17.2627                   112.6055                  160.6393                  83.8153                   34.0147                   127.9531                  114.8434                  116.456                   39.8121                   84.7172                   96.3016                   40.5216                   127.1377                  73.8173                   80.1561                   99999.0                   94.0691                   142.2006                  108.3005                  65.2534                   151.921                   128.4134                  40.8044                   116.2454                  79.9062                   68.6804                   72.7324                   82.6196                   115.6028                  129.2826                  81.6333                   156.8502                  110.4219                  49.4975                   128.5652                  121.0785                  86.7006                   62.2896                   123.4828                  48.1664                   116.2497                  64.0703                   129.124                   120.4409                  82.201                    33.5261                   95.4254                   120.5031                  
25                        39.2173                   38.8973                   65.8635                   117.72                    93.0484                   103.6002                  131.1373                  5.3852                    85.703                    29.6142                   81.0062                   94.2019                   121.4907                  52.8867                   57.0088                   117.5457                  129.5299                  81.2527                   51.3128                   119.8541                  122.9837                  25.4951                   112.0179                  94.0691                   99999.0                   51.8652                   15.8114                   139.517                   136.6053                  124.3262                  97.4064                   119.0378                  81.2158                   141.6757                  91.0879                   17.0                      130.7708                  69.4622                   26.4764                   86.122                    22.0                      63.0635                   107.6476                  123.3086                  60.7454                   31.8277                   128.8759                  134.9704                  71.4213                   148.4857                  105.8017                  41.0                      56.3205                   114.1271                  13.4536                   59.3633                   
26                        91.0824                   50.0899                   50.636                    153.701                   121.6717                  100.8415                  121.758                   48.5077                   130.9695                  30.4795                   36.7151                   115.1347                  165.4872                  31.0644                   52.1536                   126.0992                  173.954                   100.5783                  63.5689                   161.1986                  127.1417                  68.4105                   137.2953                  142.2006                  51.8652                   99999.0                   36.0555                   176.9548                  130.9695                  128.1913                  135.8013                  128.1405                  103.1213                  178.3984                  117.0                     59.6406                   143.6837                  53.1507                   61.5224                   50.2096                   31.9061                   101.5332                  105.8017                  131.0153                  79.1202                   81.8841                   137.0146                  177.8004                  68.0074                   189.4466                  102.9563                  27.5136                   78.2943                   156.5407                  46.8722                   49.0102                   
27                        55.0273                   35.1141                   56.6392                   127.3892                  99.6393                   99.7647                   125.9246                  13.0                      98.7168                   17.8045                   66.2722                   98.0                      134.2013                  40.7063                   50.0                      117.6308                  142.436                   84.0952                   49.7293                   131.5485                  121.758                   36.0555                   117.72                    108.3005                  15.8114                   36.0555                   99999.0                   149.8833                  132.5934                  123.0325                  107.7868                  119.3315                  85.0059                   151.7959                  96.6282                   26.6271                   132.5179                  60.208                    32.573                    73.0548                   8.6023                    72.9178                   104.2017                  123.2274                  62.2896                   46.6154                   129.031                   147.299                   66.0379                   160.1811                  102.0                     28.6531                   59.0085                   126.1943                  14.8661                   50.9313                   
28                        118.5116                  127.4127                  143.628                   23.4307                   58.8982                   120.0167                  137.7679                  144.9                     60.0                      146.8128                  183.142                   73.5731                   34.1321                   153.2645                  133.66                    94.5939                   34.6554                   84.8116                   116.2755                  24.7386                   105.119                   114.3897                  53.4883                   65.2534                   139.517                   176.9548                  149.8833                  99999.0                   130.6981                  105.9056                  42.1545                   93.1719                   80.2808                   3.6056                    65.6049                   123.6932                  83.1505                   144.4991                  117.618                   173.1127                  148.5295                  76.9675                   118.1059                  96.5091                   101.1781                  111.8302                  95.6347                   25.807                    126.5069                  20.025                    120.1541                  150.4261                  100.1249                  31.7805                   135.0852                  139.3018                  
29                        152.7514                  98.1835                   80.6536                   114.0395                  85.703                    33.0151                   12.083                    139.5206                  134.7665                  116.2755                  109.0                     68.1542                   147.2175                  100.5783                  83.1925                   37.0135                   154.0292                  69.3181                   85.4283                   135.0333                  26.0                      120.9173                  79.0253                   151.921                   136.6053                  130.9695                  132.5934                  130.6981                  99999.0                   25.02                     114.4246                  38.0132                   73.4098                   129.2478                  79.3095                   123.3288                  48.7032                   77.8845                   113.2784                  91.0494                   124.8239                  108.6738                  29.0689                   34.2345                   80.0562                   136.2351                  35.4401                   150.12                    66.6483                   150.6154                  30.8058                   109.0046                  85.7963                   136.3672                  123.4585                  83.9345                   
30                        135.1037                  87.9204                   78.0064                   89.0225                   61.6847                   28.6356                   32.311                    127.9531                  111.4271                  108.4159                  112.8051                  44.7772                   122.3315                  97.1288                   76.7919                   12.1655                   129.062                   48.9183                   73.5391                   110.0727                  1.4142                    105.4372                  54.0093                   128.4134                  124.3262                  128.1913                  123.0325                  105.9056                  25.02                     99999.0                   90.0278                   13.0                      52.2015                   104.561                   55.7136                   109.4166                  25.807                    76.1052                   99.1262                   96.1665                   116.0905                  87.6584                   23.7697                   9.4868                    64.3506                   119.0042                  12.7279                   125.1                     60.2993                   125.7657                  26.9258                   103.2473                  69.6348                   111.5437                  111.8928                  79.2275                   
31                        79.1581                   87.046                    106.7801                  21.0238                   29.0172                   94.4299                   118.2074                  102.7862                  26.4008                   105.4372                  145.0862                  47.0106                   35.4401                   113.8991                  95.8019                   77.8781                   43.6578                   52.6308                   77.4661                   26.6271                   88.8426                   72.2357                   39.4462                   40.8044                   97.4064                   135.8013                  107.7868                  42.1545                   114.4246                  90.0278                   99999.0                   77.3692                   47.5395                   44.2719                   36.0139                   81.5414                   75.1332                   108.2266                  75.6637                   137.0584                  106.6771                  34.8855                   94.0851                   82.0061                   63.5138                   70.5762                   83.8153                   44.1022                   91.6788                   53.8145                   95.2575                   109.8772                  61.2209                   24.3516                   93.0215                   101.6071                  
32                        126.5069                  84.5281                   79.2465                   76.0263                   49.3964                   33.8378                   44.643                    123.0325                  99.4032                   105.9292                  116.3787                  33.2866                   109.3709                  97.3293                   76.0263                   2.2361                    116.0689                  40.0                      69.6348                   97.0824                   12.0416                   98.4886                   41.0122                   116.2454                  119.0378                  128.1405                  119.3315                  93.1719                   38.0132                   13.0                      77.3692                   99999.0                   42.45                     91.9239                   43.8292                   103.3683                  17.0                      77.8781                   93.1075                   100.7224                  112.969                   77.3369                   29.8329                   5.0                       58.3095                   110.8016                  9.8489                    112.1116                  60.407                    112.969                   32.8024                   102.0441                  63.0714                   98.6154                   107.2054                  79.3095                   
33                        84.2021                   53.6004                   63.7024                   57.4282                   21.4009                   48.0937                   74.4648                   85.8429                   62.6498                   75.505                    103.5857                  13.0384                   82.9699                   75.6637                   54.6443                   41.7253                   91.0934                   5.099                     39.5601                   73.1642                   50.8035                   58.1893                   34.176                    79.9062                   81.2158                   103.1213                  85.0059                   80.2808                   73.4098                   52.2015                   47.5395                   42.45                     99999.0                   80.7217                   14.8661                   64.5368                   50.5668                   64.3506                   54.7449                   92.8493                   80.399                    35.5106                   48.6621                   47.3814                   24.0416                   68.7968                   51.8556                   90.471                    46.2277                   97.0979                   49.2544                   75.6108                   26.0768                   71.8401                   71.1126                   60.0                      
34                        121.3342                  128.7051                  144.2567                  24.6982                   59.4138                   119.4362                  136.5613                  147.0544                  63.0317                   148.3543                  183.8967                  73.4983                   37.7359                   154.3017                  134.4693                  93.4077                   38.1838                   85.1469                   117.2902                  28.1603                   103.8123                  116.456                   52.8015                   68.6804                   141.6757                  178.3984                  151.7959                  3.6056                    129.2478                  104.561                   44.2719                   91.9239                   80.7217                   99999.0                   65.9469                   125.7179                  81.3941                   145.0414                  119.4362                  173.5655                  150.2664                  78.924                    117.3882                  95.1262                   102.0686                  114.3372                  94.0479                   29.2062                   126.9055                  22.0907                   119.5073                  151.7267                  101.2126                  35.171                    136.9708                  140.0714                  
35                        88.1192                   67.0671                   78.5684                   43.0465                   7.2801                    58.5491                   82.3893                   96.0208                   55.7136                   88.6002                   118.4441                  11.1803                   70.859                    90.2109                   69.4046                   43.8634                   78.6448                   19.2094                   53.6656                   60.1664                   54.4243                   66.6108                   21.095                    72.7324                   91.0879                   117.0                     96.6282                   65.6049                   79.3095                   55.7136                   36.0139                   43.8292                   14.8661                   65.9469                   99999.0                   74.108                    46.7547                   79.196                    65.0077                   107.629                   92.7631                   36.0555                   58.0775                   48.7647                   38.0132                   74.0945                   51.8652                   77.1622                   60.959                    82.8553                   59.3043                   89.5545                   38.8973                   59.6825                   82.2192                   74.8131                   
36                        37.2156                   29.1548                   59.203                    101.5135                  76.0592                   90.5539                   118.8276                  22.0907                   72.2496                   31.0161                   82.5651                   77.4661                   107.6151                  51.0882                   48.4665                   101.9804                  115.8836                  64.846                    38.2099                   104.9571                  108.0463                  9.434                     95.0211                   82.6196                   17.0                      59.6406                   26.6271                   123.6932                  123.3288                  109.4166                  81.5414                   103.3683                  64.5368                   125.7179                  74.108                    99999.0                   114.4814                  62.6418                   10.2956                   84.0238                   27.8029                   46.8188                   94.2603                   107.7868                  45.1774                   23.5372                   113.2166                  120.6731                  60.4649                   133.6001                  92.6984                   40.7922                   40.3113                   99.5691                   12.8062                   52.2015                   
37                        133.9888                  98.326                    95.5667                   69.2315                   50.3289                   50.774                    57.7062                   135.0926                  99.5691                   120.1499                  133.1953                  38.5876                   103.8123                  113.1371                  91.5478                   19.2354                   109.6586                  49.6488                   83.2947                   91.0055                   25.6125                   108.6324                  35.8469                   115.6028                  130.7708                  143.6837                  132.5179                  83.1505                   48.7032                   25.807                    75.1332                   17.0                      50.5668                   81.3941                   46.7547                   114.4814                  99999.0                   94.3716                   104.4031                  117.686                   126.6689                  82.6196                   46.6154                   16.9706                   70.406                    119.0798                  13.4164                   104.4797                  76.4853                   103.1746                  49.6488                   117.1068                  74.4648                   93.6803                   119.6411                  95.1893                   
38                        99.4636                   33.7343                   3.6056                    121.3796                  85.6329                   48.0416                   69.0797                   70.4557                   113.842                   42.45                     39.9625                   73.4098                   142.706                   22.8473                   15.0                      75.71                     151.2382                  60.1415                   32.9848                   134.8332                  75.1665                   65.7647                   96.4002                   129.2826                  69.4622                   53.1507                   60.208                    144.4991                  77.8845                   76.1052                   108.2266                  77.8781                   64.3506                   145.0414                  79.196                    62.6418                   94.3716                   99999.0                   55.7315                   28.8444                   51.6624                   80.3243                   53.0377                   80.0625                   44.7772                   84.0119                   85.9884                   152.322                   18.868                    160.602                   50.0899                   32.8024                   47.927                    132.0984                  56.356                    10.4403                   
39                        43.9659                   22.0907                   52.469                    94.9368                   67.4759                   80.6102                   109.0413                  31.1448                   69.527                    31.241                    80.0062                   67.7422                   104.0048                  47.5395                   41.0                      91.7061                   112.45                    54.8179                   28.6007                   100.2098                  97.7548                   10.0499                   86.0523                   81.6333                   26.4764                   61.5224                   32.573                    117.618                   113.2784                  99.1262                   75.6637                   93.1075                   54.7449                   119.4362                  65.0077                   10.2956                   104.4031                  55.7315                   99999.0                   79.3095                   31.0644                   40.8167                   84.22                     97.509                    34.8855                   28.2843                   102.9563                  116.5161                  51.4782                   128.7051                  82.7345                   38.9102                   30.0832                   95.268                    17.72                     45.3982                   
40                        121.1487                  57.7062                   30.4138                   150.0833                  114.2147                  67.6757                   80.025                    85.44                     141.8732                  56.5155                   18.2483                   101.1781                  171.4322                  33.3766                   42.1545                   98.4886                   179.9806                  88.459                    60.9262                   163.6704                  95.5092                   89.202                    123.9879                  156.8502                  86.122                    50.2096                   73.0548                   173.1127                  91.0494                   96.1665                   137.0584                  100.7224                  92.8493                   173.5655                  107.629                   84.0238                   117.686                   28.8444                   79.3095                   99999.0                   64.846                    108.462                   72.4224                   101.951                   73.5731                   107.042                   107.5639                  181.1574                  46.6905                   189.4017                  69.2604                   45.1221                   76.4788                   160.8788                  74.6726                   36.4005                   
41                        60.4152                   28.4429                   48.1041                   125.6742                  96.3016                   92.1358                   117.8855                  20.6155                   99.7046                   9.2195                    59.0085                   93.2631                   134.7145                  32.2025                   41.8808                   111.198                   143.0874                  79.0569                   43.4166                   131.244                   114.8434                  36.7967                   113.7717                  110.4219                  22.0                      31.9061                   8.6023                    148.5295                  124.8239                  116.0905                  106.6771                  112.969                   80.399                    150.2664                  92.7631                   27.8029                   126.6689                  51.6624                   31.0644                   64.846                    99999.0                   71.8679                   96.6644                   116.709                   57.0088                   50.0899                   122.5765                  147.4347                  58.1808                   159.7623                  94.3716                   20.1246                   54.3323                   126.2101                  15.0                      42.5206                   
42                        52.3927                   54.2033                   78.1857                   54.7083                   34.5398                   81.0432                   108.8485                  68.4105                   33.5261                   71.0634                   114.057                   44.5533                   64.6607                   81.8413                   66.3099                   76.8375                   73.2462                   39.3573                   47.5395                   59.6657                   86.267                    37.6431                   54.0833                   49.4975                   63.0635                   101.5332                  72.9178                   76.9675                   108.6738                  87.6584                   34.8855                   77.3369                   35.5106                   78.924                    36.0555                   46.8188                   82.6196                   80.3243                   40.8167                   108.462                   71.8679                   99999.0                   82.5409                   82.3286                   37.2156                   39.6232                   86.3134                   76.3806                   66.7533                   88.0057                   82.5651                   76.4199                   32.7567                   55.1543                   58.1378                   72.0902                   
43                        124.2014                  69.4622                   55.2268                   98.2344                   65.192                    5.0                       26.4008                   110.6752                  111.3059                  88.3912                   89.0505                   47.2652                   128.7633                  74.8131                   55.6597                   27.6586                   136.3305                  43.9318                   56.4004                   117.5457                  23.0868                   91.9674                   64.622                    128.5652                  107.6476                  105.8017                  104.2017                  118.1059                  29.0689                   23.7697                   94.0851                   29.8329                   48.6621                   117.3882                  58.0775                   94.2603                   46.6154                   53.0377                   84.22                     72.4224                   96.6644                   82.5409                   99999.0                   30.0167                   51.4004                   107.6151                  35.3412                   133.9589                  38.8973                   137.2443                  3.1623                    82.0061                   57.2014                   117.6138                  94.578                    57.2713                   
44                        131.3659                  88.295                    81.6149                   80.0062                   54.231                    34.4384                   41.7852                   127.2242                  104.2785                  109.4897                  118.0042                  38.2753                   113.6354                  100.08                    79.0253                   5.831                     120.204                   44.8219                   73.4983                   101.2423                  8.9443                    103.0776                  45.0444                   121.0785                  123.3086                  131.0153                  123.2274                  96.5091                   34.2345                   9.4868                    82.0061                   5.0                       47.3814                   95.1262                   48.7647                   107.7868                  16.9706                   80.0625                   97.509                    101.951                   116.709                   82.3286                   30.0167                   99999.0                   62.6498                   115.6028                  6.0                       116.0172                  63.0714                   116.4002                  33.121                    105.2331                  67.5352                   102.9563                  111.3283                  82.0549                   
45                        72.8011                   29.6142                   43.2666                   77.7946                   43.2666                   48.5489                   77.3886                   64.846                    70.406                    51.6236                   82.0731                   36.4966                   97.949                    52.4309                   32.5576                   56.8595                   106.4707                  22.0907                   15.6525                   90.1388                   62.9682                   41.2311                   58.1893                   86.7006                   60.7454                   79.1202                   62.2896                   101.1781                  80.0562                   64.3506                   63.5138                   58.3095                   24.0416                   102.0686                  38.0132                   45.1774                   70.406                    44.7772                   34.8855                   73.5731                   57.0088                   37.2156                   51.4004                   62.6498                   99999.0                   56.2228                   68.1542                   107.6151                  29.6142                   116.3873                  50.4777                   51.6236                   5.831                     87.3212                   49.2443                   38.2884                   
46                        16.6433                   50.3587                   80.7527                   91.5478                   73.7631                   104.6231                  133.4541                  36.7967                   55.0091                   54.4059                   106.099                   80.5295                   90.824                    74.4312                   69.2315                   109.8089                  98.6154                   70.8025                   55.1543                   90.4765                   117.5925                  18.2483                   93.4077                   62.2896                   31.8277                   81.8841                   46.6154                   111.8302                  136.2351                  119.0042                  70.5762                   110.8016                  68.7968                   114.3372                  74.0945                   23.5372                   119.0798                  84.0119                   28.2843                   107.042                   50.0899                   39.6232                   107.6151                  115.6028                  56.2228                   99999.0                   120.4326                  104.6518                  78.5493                   118.8486                  106.6068                  64.3273                   50.448                    84.309                    35.4683                   73.6817                   
47                        136.0331                  94.1488                   87.5728                   80.3057                   56.8243                   39.9249                   44.2945                   132.8533                  106.8925                  115.4123                  123.7619                  41.8688                   114.4246                  106.0754                  85.0235                   11.4018                   120.7021                  49.6488                   79.3095                   101.8332                  12.8062                   108.3005                  45.7056                   123.4828                  128.8759                  137.0146                  129.031                   95.6347                   35.4401                   12.7279                   83.8153                   9.8489                    51.8556                   94.0479                   51.8652                   113.2166                  13.4164                   85.9884                   102.9563                  107.5639                  122.5765                  86.3134                   35.3412                   6.0                       68.1542                   120.4326                  99999.0                   116.0689                  69.0652                   115.6244                  38.4838                   111.2205                  72.9178                   103.9423                  117.0043                  88.0511                   
48                        107.8564                  130.2306                  150.8807                  36.1248                   69.8928                   135.0926                  155.9295                  140.2926                  49.6588                   147.3228                  189.0106                  87.0919                   14.3178                   157.4929                  139.8463                  113.2166                  9.8489                    95.462                    121.4002                  17.4929                   124.1451                  111.252                   71.1126                   48.1664                   134.9704                  177.8004                  147.299                   25.807                    150.12                    125.1                     44.1022                   112.1116                  90.471                    29.2062                   77.1622                   120.6731                  104.4797                  152.322                   116.5161                  181.1574                  147.4347                  76.3806                   133.9589                  116.0172                  107.6151                  104.6518                  116.0689                  99999.0                   135.595                   16.0312                   135.5913                  152.7416                  105.2093                  21.2603                   133.0038                  145.6606                  
49                        94.9368                   32.5269                   19.3132                   103.6002                  67.624                    34.176                    60.0                      73.7564                   100.02                    49.6588                   58.8303                   54.6717                   126.7162                  37.0135                   16.7631                   58.3095                   135.1481                  41.7732                   23.4094                   118.1186                  59.2115                   60.8358                   77.6209                   116.2497                  71.4213                   68.0074                   66.0379                   126.5069                  66.6483                   60.2993                   91.6788                   60.407                    46.2277                   126.9055                  60.959                    60.4649                   76.4853                   18.868                    51.4782                   46.6905                   58.1808                   66.7533                   38.8973                   63.0714                   29.6142                   78.5493                   69.0652                   135.595                   99999.0                   143.1258                  36.4005                   43.1741                   34.1321                   115.8706                  58.0                      19.0                      
50                        122.9715                  140.8581                  159.4553                  39.8246                   75.8024                   138.928                   157.496                   153.8473                  64.195                    159.0126                  198.3986                  91.7061                   30.0666                   167.5858                  148.9228                  114.3372                  25.4951                   101.8725                  130.9084                  28.6531                   124.952                   124.1692                  72.8011                   64.0703                   148.4857                  189.4466                  160.1811                  20.025                    150.6154                  125.7657                  53.8145                   112.969                   97.0979                   22.0907                   82.8553                   133.6001                  103.1746                  160.602                   128.7051                  189.4017                  159.7623                  88.0057                   137.2443                  116.4002                  116.3873                  118.8486                  115.6244                  16.0312                   143.1258                  99999.0                   139.1761                  163.6857                  114.6298                  34.5398                   145.6468                  154.6739                  
51                        123.2234                  67.4166                   52.345                    100.0                     66.4831                   2.2361                    26.9258                   108.7244                  111.8794                  86.0058                   85.9069                   48.6621                   130.1153                  72.0069                   53.1413                   30.6105                   137.7679                  44.4072                   54.6717                   119.0504                  26.2488                   90.6863                   66.7083                   129.124                   105.8017                  102.9563                  102.0                     120.1541                  30.8058                   26.9258                   95.2575                   32.8024                   49.2544                   119.5073                  59.3043                   92.6984                   49.6488                   50.0899                   82.7345                   69.2604                   94.3716                   82.5651                   3.1623                    33.121                    50.4777                   106.6068                  38.4838                   135.5913                  36.4005                   139.1761                  99999.0                   79.404                    56.3028                   118.9496                  92.6553                   54.5711                   
52                        77.1038                   23.0217                   29.4109                   127.063                   94.3663                   77.201                    101.0742                  40.4969                   107.6476                  11.4018                   41.7732                   87.6413                   141.0142                  12.083                    26.4764                   100.08                    149.5761                  73.0821                   36.0555                   135.794                   102.1078                  47.7598                   109.7862                  120.4409                  41.0                      27.5136                   28.6531                   150.4261                  109.0046                  103.2473                  109.8772                  102.0441                  75.6108                   151.7267                  89.5545                   40.7922                   117.1068                  32.8024                   38.9102                   45.1221                   20.1246                   76.4199                   82.0061                   105.2331                  51.6236                   64.3273                   111.2205                  152.7416                  43.1741                   163.6857                  79.404                    99999.0                   51.0                      131.5523                  30.0                      25.0799                   
53                        67.0075                   28.2312                   46.0652                   76.6942                   43.382                    54.3783                   83.2166                   60.6383                   66.2193                   49.7293                   83.8689                   39.0128                   95.0158                   53.1507                   34.6699                   61.7171                   103.5857                  25.1794                   16.2788                   87.8009                   68.2422                   35.805                    59.6657                   82.201                    56.3205                   78.2943                   59.0085                   100.1249                  85.7963                   69.6348                   61.2209                   63.0714                   26.0768                   101.2126                  38.8973                   40.3113                   74.4648                   47.927                    30.0832                   76.4788                   54.3323                   32.7567                   57.2014                   67.5352                   5.831                     50.448                    72.9178                   105.2093                  34.1321                   114.6298                  56.3028                   51.0                      99999.0                   84.5991                   45.3982                   40.4969                   
54                        88.8426                   109.1238                  130.5105                  25.5539                   52.469                    118.2286                  141.0035                  119.4738                  29.8329                   126.0635                  168.2171                  70.3491                   11.1803                   136.4991                  119.2686                  99.4082                   19.3132                   76.922                    100.6876                  7.0711                    110.4536                  90.1388                   58.2495                   33.5261                   114.1271                  156.5407                  126.1943                  31.7805                   136.3672                  111.5437                  24.3516                   98.6154                   71.8401                   35.171                    59.6825                   99.5691                   93.6803                   132.0984                  95.268                    160.8788                  126.2101                  55.1543                   117.6138                  102.9563                  87.3212                   84.309                    103.9423                  21.2603                   115.8706                  34.5398                   118.9496                  131.5523                  84.5991                   99999.0                   111.8302                  125.096                   
55                        47.1699                   25.4951                   52.7731                   112.5389                  85.0                      90.4434                   117.7964                  16.1245                   84.8999                   19.2354                   71.4493                   84.1487                   120.1041                  41.3038                   43.6005                   105.622                   128.4251                  70.5762                   38.4708                   117.047                   110.5712                  21.9317                   103.3102                  95.4254                   13.4536                   46.8722                   14.8661                   135.0852                  123.4585                  111.8928                  93.0215                   107.2054                  71.1126                   136.9708                  82.2192                   12.8062                   119.6411                  56.356                    17.72                     74.6726                   15.0                      58.1378                   94.578                    111.3283                  49.2443                   35.4683                   117.0043                  133.0038                  58.0                      145.6468                  92.6553                   30.0                      45.3982                   111.8302                  99999.0                   46.1411                   
56                        89.0505                   23.3452                   7.0711                    115.9741                  80.8084                   52.3927                   76.0592                   60.6053                   105.4751                  33.4215                   43.8406                   70.3278                   135.4843                  18.0278                   5.831                     77.2334                   144.0625                  56.3028                   24.5967                   128.2225                  78.1601                   55.4437                   93.2952                   120.5031                  59.3633                   49.0102                   50.9313                   139.3018                  83.9345                   79.2275                   101.6071                  79.3095                   60.0                      140.0714                  74.8131                   52.2015                   95.1893                   10.4403                   45.3982                   36.4005                   42.5206                   72.0902                   57.2713                   82.0549                   38.2884                   73.6817                   88.0511                   145.6606                  19.0                      154.6739                  54.5711                   25.0799                   40.4969                   125.096                   46.1411                   99999.0                   
;
SCALAR TOTAL  /56/;
SCALAR NODES  /50/;
SCALAR W  /2/;
SCALAR Y  /112/;
SCALAR M  /1/;
BINARY VARIABLE X(I,J,K)  x variable ;
INTEGER VARIABLE U(K,O)    u variable ;
VARIABLE   Z         objective ;
EQUATIONS
CON1(K)   constraint 1
CON2(K)   constraint 2
CON3   constraint 3
CON4(O)   constraint 4
CON5(O,K)   constraint 5
CON6(O,K)   constraint 6
CON7(K)   constraint 7
CON10(O,P,K)   constraint 10
CON11(O,K)   constraint 11;
CON1(K).. SUM(O,X(K,O,K)) =E= 1;
CON2(K).. SUM(O,X(O,K,K)) =E= 1;
CON3..  SUM((K,L),X(K,L,K)) =E= 0;
CON4(O) .. SUM(K,X(K,O,K)) + SUM((P,K),X(P,O,K)) =e= W;
CON5(O,K) .. X(K,O,K) + SUM(P,X(P,O,K)) =L= 1;
CON6(O,K) .. X(K,O,K) + SUM(P,X(P,O,K)) - X(O,K,K) - SUM(P,X(O,P,K)) =e= 0;
CON7(K) .. Z =G= SUM(O,C(K,O)*X(K,O,K) + C(O,K)*X(O,K,K)) + SUM((P,O),C(P,O)*X(P,O,K));
CON10(O,P,K) .. U(K,O) - U(K,P) + (TOTAL-1)*X(O,P,K) + (TOTAL-3)*X(P,O,K) =L= (TOTAL-2);
CON11(O,K) .. X(O,O,K) =e= 0;
MODEL TRANSPORT /ALL/;
Option Reslim = 28800;
SOLVE TRANSPORT USING MIP MINIMIZING Z ;
