SET
I  first /1*66/
K(I)  depot1 /1*6/
O(I)  node1 /7*66/
alias(I,J);
alias(K,L);
alias(O,P);
TABLE C(I,J)  node to node
                          1                         2                         3                         4                         5                         6                         7                         8                         9                         10                        11                        12                        13                        14                        15                        16                        17                        18                        19                        20                        21                        22                        23                        24                        25                        26                        27                        28                        29                        30                        31                        32                        33                        34                        35                        36                        37                        38                        39                        40                        41                        42                        43                        44                        45                        46                        47                        48                        49                        50                        51                        52                        53                        54                        55                        56                        57                        58                        59                        60                        61                        62                        63                        64                        65                        66                        
1                         99999.0                   99999.0                   99999.0                   99999.0                   99999.0                   99999.0                   103.407                   79.8311                   113.0708                  68.9493                   157.6135                  142.3938                  125.6344                  27.4591                   124.3262                  149.683                   52.2015                   141.2409                  71.1969                   71.0211                   56.9386                   66.7608                   151.9803                  159.4553                  115.434                   140.1856                  100.3195                  100.4988                  169.9176                  38.0789                   87.4757                   140.2462                  37.6431                   34.4384                   150.7481                  117.72                    60.2993                   5.0                       120.3536                  80.2309                   42.9418                   144.6928                  59.0339                   132.0038                  122.8088                  117.3925                  21.8403                   85.703                    36.8782                   62.1691                   37.8021                   80.4114                   127.236                   46.4866                   47.2017                   103.0437                  80.2247                   99.8248                   121.2642                  69.8928                   81.8413                   129.6919                  152.8987                  100.3195                  88.8369                   49.5177                   
2                         99999.0                   99999.0                   99999.0                   99999.0                   99999.0                   99999.0                   98.8838                   78.6003                   73.3348                   64.6607                   103.1746                  81.3941                   73.4098                   42.0595                   144.2775                  96.0417                   57.2014                   101.6071                  94.6256                   6.7082                    99.0202                   96.3846                   107.2054                  115.434                   99.3277                   93.9202                   111.3957                  72.0069                   121.7415                  81.4923                   22.0227                   97.7446                   77.8845                   99.6243                   103.2473                  59.9416                   21.3776                   67.0522                   55.0818                   67.6018                   26.4764                   91.4166                   68.2495                   119.5492                  114.3897                  52.8394                   85.4751                   20.0998                   75.0                      42.7551                   60.8769                   15.0                      102.9563                  36.0555                   42.72                     40.8044                   26.4008                   48.0833                   119.8833                  100.8464                  23.7697                   108.8531                  100.7224                  111.3957                  63.6003                   100.2247                  
3                         99999.0                   99999.0                   99999.0                   99999.0                   99999.0                   99999.0                   112.4856                  96.4002                   71.7844                   84.0595                   85.3815                   58.3095                   57.3062                   71.5122                   163.4044                  79.555                    81.3449                   95.7549                   118.1059                  25.2982                   126.3725                  121.2642                  97.0464                   105.119                   107.6151                  84.0                      129.6302                  78.2304                   107.8703                  110.0273                  8.9443                    90.2718                   106.2121                  129.8075                  91.351                    40.2244                   42.8019                   97.2677                   25.0799                   82.9759                   56.0                      75.71                     91.2853                   127.4245                  124.6194                  26.4008                   115.849                   10.4403                   103.2473                  60.4401                   86.8389                   15.8114                   106.5129                  61.0328                   68.4105                   19.2354                   29.5296                   39.2046                   132.6537                  125.7179                  27.0185                   113.5958                  85.1469                   129.6302                  73.7564                   128.9961                  
4                         99999.0                   99999.0                   99999.0                   99999.0                   99999.0                   99999.0                   13.1529                   25.5539                   68.0661                   39.8246                   117.0043                  123.6932                  175.5677                  107.4895                  44.2832                   110.0409                  52.8867                   79.4292                   34.4819                   110.0                     60.7454                   42.72                     94.541                    98.2344                   32.573                    90.0888                   12.0                      50.0                      113.031                   67.72                     117.3882                  83.6002                   65.7343                   120.2082                  98.6154                   159.8061                  119.8833                  105.0762                  141.2409                  37.4833                   86.9253                   106.1697                  42.5793                   37.6431                   27.0185                   121.3136                  97.2677                   115.2779                  65.1153                   137.2334                  131.3811                  113.3578                  49.0408                   121.758                   66.4831                   138.6001                  130.4301                  151.6476                  21.3776                   43.4166                   93.4345                   45.6508                   109.0413                  12.0                      48.3735                   74.4312                   
5                         99999.0                   99999.0                   99999.0                   99999.0                   99999.0                   99999.0                   27.8029                   17.1172                   37.855                    18.6011                   89.4986                   90.5539                   140.8687                  85.2877                   80.1311                   81.7863                   34.8855                   59.4054                   48.0521                   76.9415                   70.214                    55.3624                   73.0616                   79.0569                   30.0167                   64.622                    46.5188                   18.9737                   92.2822                   66.5282                   82.4621                   60.9016                   62.9365                   115.1086                  74.7329                   124.6515                  89.8443                   91.5478                   105.2093                  6.7082                    60.1332                   77.2787                   31.8277                   49.366                    43.0116                   85.4225                   92.2009                   80.4301                   60.8276                   109.2383                  110.5486                  79.0569                   40.3113                   95.5249                   42.4264                   103.3925                  97.5295                   117.8855                  48.5489                   58.6941                   58.0517                   43.1741                   82.28                     46.5188                   12.6491                   80.9938                   
6                         99999.0                   99999.0                   99999.0                   99999.0                   99999.0                   99999.0                   88.0227                   82.3893                   33.2866                   76.1643                   38.0132                   25.0                      102.6109                  103.9663                  143.6175                  30.8869                   83.678                    48.1041                   112.0                     64.846                    129.7112                  118.1524                  47.0425                   55.0                      75.4718                   34.3657                   111.1261                  49.6488                   57.9741                   119.2518                  55.5428                   41.7612                   115.1347                  155.3222                  41.1096                   84.9294                   85.4225                   124.2014                  55.7136                   68.1175                   78.8733                   26.4008                   88.8144                   92.3147                   93.1933                   31.0161                   136.0                     55.0818                   112.272                   106.1037                  125.6025                  58.5235                   67.897                    101.2423                  77.8781                   67.1193                   78.339                    89.0056                   104.3168                  122.0656                  42.0119                   75.6902                   35.8469                   111.1261                  53.3385                   137.2771                  
7                         103.407                   98.8838                   112.4856                  13.1529                   27.8029                   88.0227                   99999.0                   24.0                      55.7853                   37.4833                   104.0048                  111.6826                  168.6683                  107.4663                  55.6597                   97.1288                   53.0094                   66.2873                   43.8634                   104.4462                  70.1783                   52.345                    81.3941                   85.1645                   19.6977                   77.026                    25.0799                   38.4838                   99.925                    74.2496                   110.2588                  70.4557                   71.6938                   126.4634                  85.4751                   152.3975                  116.2454                  108.3421                  132.1363                  31.305                    84.6463                   93.3435                   44.4072                   29.1548                   19.4165                   111.2205                  103.2473                  108.2312                  70.5762                   134.7665                  132.1363                  106.8316                  36.2491                   120.075                   64.9384                   131.1373                  125.032                   145.6091                  21.0238                   53.8145                   85.7963                   33.6006                   96.0052                   25.0799                   38.9487                   83.4086                   
8                         79.8311                   78.6003                   96.4002                   25.5539                   17.1172                   82.3893                   24.0                      99999.0                   54.9181                   14.3178                   106.5129                  107.2986                  150.6287                  83.6002                   67.0075                   98.8433                   29.0172                   74.793                    31.0483                   84.6463                   54.3783                   38.6264                   89.0                      94.5145                   36.7151                   81.2712                   33.3017                   35.9026                   108.2266                  53.6004                   92.7631                   76.9675                   50.4777                   104.6566                  91.1811                   135.2072                  94.3663                   84.7231                   118.3385                  14.5602                   61.6847                   94.3663                   20.8806                   52.1728                   43.1856                   100.09                    81.4125                   90.6091                   48.8774                   112.0089                  108.1665                  88.3912                   51.0882                   96.8401                   41.4849                   114.1096                  105.0                     126.3725                  43.9318                   41.7612                   69.4046                   51.6236                   99.2018                   33.3017                   29.0689                   66.0681                   
9                         113.0708                  73.3348                   71.7844                   68.0661                   37.855                    33.2866                   55.7853                   54.9181                   99999.0                   53.2259                   51.6624                   55.9732                   128.5496                  102.8834                  111.4002                  43.9318                   65.8027                   29.1548                   85.9069                   76.0066                   107.3359                  93.145                    38.9487                   46.4004                   42.19                     28.0179                   79.9062                   19.105                    57.3847                   101.0198                  73.5459                   27.2029                   97.0979                   144.9586                  38.6005                   110.982                   94.6414                   117.0043                  84.8764                   42.3792                   75.5844                   39.4588                   67.082                    59.4138                   59.9083                   61.0737                   123.2396                  72.1803                   94.578                    115.9741                  127.3892                  73.437                    35.805                    106.48                    65.9469                   90.824                    94.4299                   110.354                   71.1196                   96.5401                   51.0392                   43.4166                   44.5982                   79.9062                   27.7308                   117.1708                  
10                        68.9493                   64.6607                   84.0595                   39.8246                   18.6011                   76.1643                   37.4833                   14.3178                   53.2259                   99999.0                   104.4031                  101.1237                  137.2079                  70.1142                   79.9812                   96.4624                   16.7631                   77.3369                   36.3456                   70.8378                   54.4059                   42.0119                   90.4434                   96.8297                   46.5725                   81.0062                   46.7547                   35.805                    109.5536                  48.4149                   79.8123                   78.2368                   44.6878                   96.5194                   91.4166                   122.1475                  80.0625                   73.6817                   106.8878                  12.0416                   47.4342                   91.7061                   13.8924                   64.195                    56.0357                   90.2497                   73.6003                   77.6209                   42.45                     97.7394                   95.0                      75.0733                   58.5918                   82.7103                   27.4591                   101.2126                  91.0494                   112.6099                  57.9741                   46.0109                   57.3062                   60.7454                   97.6934                   46.7547                   25.4951                   63.9531                   
11                        157.6135                  103.1746                  85.3815                   117.0043                  89.4986                   38.0132                   104.0048                  106.5129                  51.6624                   104.4031                  99999.0                   31.1448                   131.0038                  141.6757                  158.0285                  8.0623                    115.382                   41.4367                   137.5391                  102.5768                  158.7577                  144.8068                  28.8444                   32.5576                   86.4696                   27.1662                   129.0039                  70.6116                   25.9615                   151.1688                  91.9239                   35.171                    147.136                   191.2067                  21.4709                   114.0702                  123.1666                  160.8633                  83.0241                   93.9628                   115.9741                  13.0384                   118.1059                  97.1236                   101.9804                  61.0                      170.8479                  91.7878                   144.4507                  143.5584                  163.6001                  95.7079                   72.7805                   139.23                    112.3299                  99.6393                   114.5862                  122.1843                  114.7563                  148.1924                  80.0                      79.8123                   8.2462                    129.0039                  79.0569                   168.0774                  
12                        142.3938                  81.3941                   58.3095                   123.6932                  90.5539                   25.0                      111.6826                  107.2986                  55.9732                   101.1237                  31.1448                   99999.0                   100.02                    122.6132                  167.335                   28.7924                   108.0602                  61.5549                   137.0                     79.2465                   154.4345                  143.1258                  54.2033                   60.4152                   97.5756                   45.3431                   135.3662                  73.7564                   56.8859                   143.3388                  66.0303                   54.4885                   139.2157                  176.7767                  46.5296                   83.2947                   99.3579                   144.9172                  52.2398                   93.086                    99.4786                   27.7849                   113.6354                  112.681                   114.9348                  32.2025                   158.4961                  66.4003                   136.3085                  118.461                   142.1302                  71.0634                   87.6641                   116.7262                  101.1929                  70.214                    87.818                    92.72                     126.7162                  147.0544                  60.7454                   95.4149                   34.7851                   135.3662                  78.2304                   161.6168                  
13                        125.6344                  73.4098                   57.3062                   175.5677                  140.8687                  102.6109                  168.6683                  150.6287                  128.5496                  137.2079                  131.0038                  100.02                    99999.0                   98.2344                   217.175                   127.2517                  130.6025                  150.4161                  168.003                   66.8431                   170.4171                  169.4609                  149.1107                  156.6972                  164.8302                  136.8941                  183.8478                  135.4843                  156.205                   151.6377                  58.4123                   144.3087                  148.4756                  153.7335                  142.4114                  17.72                     66.4831                   124.5351                  48.0937                   138.1919                  97.7548                   124.5793                  141.651                   184.7079                  181.6645                  72.0069                   147.4619                  60.4401                   145.7944                  66.0681                   99.0                      62.2415                   163.6857                  79.4292                   116.0172                  38.0789                   48.3735                   26.4008                   189.201                   173.8994                  83.006                    170.845                   133.3042                  183.8478                  130.4301                  169.3871                  
14                        27.4591                   42.0595                   71.5122                   107.4895                  85.2877                   103.9663                  107.4663                  83.6002                   102.8834                  70.1142                   141.6757                  122.6132                  98.2344                   99999.0                   139.0863                  134.0634                  54.7449                   132.0038                  85.0                      46.2385                   77.7946                   82.9277                   140.6556                  148.6069                  115.2779                  127.9453                  110.6797                  94.3716                   157.2578                  58.0                      62.6259                   129.7112                  55.9017                   58.8558                   138.134                   90.3549                   33.0151                   27.0                      94.8314                   79.1012                   27.313                    129.1898                  65.0                      134.0037                  126.1428                  94.8947                   49.2443                   61.0983                   53.9073                   36.4005                   25.318                    55.7136                   124.1491                  19.7231                   43.0116                   76.4199                   53.0094                   72.3671                   127.4245                  86.8389                   62.2896                   128.1327                  138.058                   110.6797                  83.1986                   73.4983                   
15                        124.3262                  144.2775                  163.4044                  44.2832                   80.1311                   143.6175                  55.6597                   67.0075                   111.4002                  79.9812                   158.0285                  167.335                   217.175                   139.0863                  99999.0                   151.6047                  88.4081                   118.0678                  54.1295                   150.6154                  70.3491                   57.5674                   133.015                   135.1333                  71.5681                   130.8625                  33.8378                   93.984                    150.1632                  86.5852                   159.6653                  123.3288                  86.6833                   134.0933                  138.2317                  202.0718                  157.6103                  129.1201                  185.0027                  80.7094                   123.6002                  148.1249                  77.0065                   64.7765                   57.0351                   165.5295                  113.9912                  157.4929                  87.5957                   172.5688                  160.256                   155.0516                  86.0233                   156.0641                  103.2327                  181.0442                  170.5315                  192.3538                  44.0454                   54.5711                   136.4001                  80.0562                   149.8566                  33.8378                   92.5905                   83.0241                   
16                        149.683                   96.0417                   79.555                    110.0409                  81.7863                   30.8869                   97.1288                   98.8433                   43.9318                   96.4624                   8.0623                    28.7924                   127.2517                  134.0634                  151.6047                  99999.0                   107.3313                  36.7151                   129.8384                  95.7131                   150.841                   137.0328                  26.2488                   31.7648                   80.0625                   21.1896                   122.0369                  62.9682                   29.0                      143.1258                  85.703                    29.9666                   139.0899                  183.2184                  18.4391                   110.0409                  116.297                   152.9706                  79.1581                   86.1278                   108.1896                  5.0                       110.1363                  91.7606                   96.0469                   56.1427                   162.8066                  85.44                     136.4001                  136.8941                  156.237                   89.1572                   67.0522                   132.0757                  104.2929                  94.6414                   108.4666                  117.0982                  108.683                   140.4635                  72.6705                   74.3303                   6.0828                    122.0369                  71.1688                   160.0781                  
17                        52.2015                   57.2014                   81.3449                   52.8867                   34.8855                   83.678                    53.0094                   29.0172                   65.8027                   16.7631                   115.382                   108.0602                  130.6025                  54.7449                   88.4081                   107.3313                  99999.0                   91.9348                   37.4433                   63.8201                   47.0                      39.9249                   104.2353                  111.072                   63.3246                   93.8136                   57.2451                   50.2494                   123.065                   35.8469                   75.5844                   92.0978                   31.7805                   80.604                    104.4031                  116.8118                  69.2026                   56.921                    105.6504                  28.178                    35.2278                   102.4158                  11.4018                   80.6226                   72.0625                   92.3472                   58.0517                   73.3485                   29.0689                   84.9706                   79.1581                   69.8355                   75.1532                   69.0797                   14.8661                   96.6488                   82.8794                   104.9952                  72.6911                   44.3847                   56.2939                   77.4919                   109.2749                  57.2451                   38.8973                   53.6004                   
18                        141.2409                  101.6071                  95.7549                   79.4292                   59.4054                   48.1041                   66.2873                   74.793                    29.1548                   77.3369                   41.4367                   61.5549                   150.4161                  132.0038                  118.0678                  36.7151                   91.9348                   99999.0                   105.119                   103.6967                  129.1395                  113.1459                  15.1327                   19.7231                   47.2652                   16.2788                   91.2414                   41.7253                   33.8378                   125.7338                  99.0808                   7.0711                    122.0246                  172.2469                  20.3961                   132.6989                  122.9837                  145.341                   103.8171                  65.437                    104.6948                  35.0                      91.0494                   55.7853                   61.2944                   79.1202                   149.9667                  98.0204                   119.7539                  144.3607                  156.5439                  100.045                   32.0624                   135.44                    94.0479                   113.9517                  121.0165                  134.9518                  74.2428                   115.8706                  78.5175                   38.6394                   33.2415                   91.2414                   53.0754                   140.346                   
19                        71.1969                   94.6256                   118.1059                  34.4819                   48.0521                   112.0                     43.8634                   31.0483                   85.9069                   36.3456                   137.5391                  137.0                     168.003                   85.0                      54.1295                   129.8384                  37.4433                   105.119                   99999.0                   101.2571                  26.4008                   8.4853                    119.6202                  124.7758                  62.482                    112.272                   30.4138                   66.9403                   138.7984                  35.0571                   112.7697                  107.7033                  34.0588                   86.885                    122.0901                  154.2368                  105.3803                  76.1183                   141.8732                  44.1814                   71.4213                   125.3196                  26.8328                   71.8471                   61.2944                   126.3725                  64.4981                   110.5351                  34.3657                   119.0378                  106.2826                  107.1868                  78.6003                   102.3426                  52.0096                   133.9589                  120.1041                  142.2744                  55.1543                   10.7703                   92.1141                   77.1557                   130.2498                  30.4138                   59.3043                   39.9625                   
20                        71.0211                   6.7082                    25.2982                   110.0                     76.9415                   64.846                    104.4462                  84.6463                   76.0066                   70.8378                   102.5768                  79.2465                   66.8431                   46.2385                   150.6154                  95.7131                   63.8201                   103.6967                  101.2571                  99999.0                   105.6882                  103.0776                  108.4159                  116.6619                  104.0625                  95.0789                   117.5925                  76.1577                   122.1966                  88.0568                   16.4924                   99.4636                   84.4808                   104.5466                  104.0433                  53.2353                   20.5913                   72.0347                   49.366                    73.2462                   32.9848                   91.236                    74.8131                   124.3101                  119.5073                  49.4065                   91.1976                   14.8661                   81.6088                   41.4367                   63.0317                   9.4868                    106.8878                  37.4833                   49.3964                   34.2053                   20.5913                   41.7732                   125.3994                  107.5407                  25.1794                   113.031                   100.6479                  117.5925                  68.352                    106.7333                  
21                        56.9386                   99.0202                   126.3725                  60.7454                   70.214                    129.7112                  70.1783                   54.3783                   107.3359                  54.4059                   158.7577                  154.4345                  170.4171                  77.7946                   70.3491                   150.841                   47.0                      129.1395                  26.4008                   105.6882                  99999.0                   18.0278                   143.1782                  148.8624                  88.4138                   134.7368                  55.1543                   89.0505                   162.4131                  19.799                    119.6411                  131.0611                  22.2036                   64.0312                   144.931                   158.619                   104.6231                  61.2944                   151.2118                  65.0                      73.0068                   146.1027                  41.0                      98.2293                   87.6584                   139.23                    43.7379                   117.4436                  24.6982                   114.0219                  94.578                    113.2254                  104.2353                  97.0824                   58.0517                   139.7856                  122.0901                  144.059                   80.9506                   18.0278                   102.7035                  103.2376                  151.921                   55.1543                   79.712                    13.9284                   
22                        66.7608                   96.3846                   121.2642                  42.72                     55.3624                   118.1524                  52.345                    38.6264                   93.145                    42.0119                   144.8068                  143.1258                  169.4609                  82.9277                   57.5674                   137.0328                  39.9249                   113.1459                  8.4853                    103.0776                  18.0278                   99999.0                   127.5343                  132.8345                  70.9366                   119.8708                  37.6431                   74.3303                   146.7413                  29.2746                   115.4513                  115.5509                  29.1204                   79.9062                   129.8075                  156.285                   105.5509                  71.5681                   145.4648                  50.9902                   72.0069                   132.4424                  30.5941                   80.2122                   69.6348                   131.0343                  58.0345                   113.2166                  30.0832                   117.9237                  102.9563                  109.5673                  87.0057                   101.0445                  53.7122                   136.4001                  121.2477                  143.4503                  63.0714                   4.4721                    95.8801                   85.6329                   137.6408                  37.6431                   66.0984                   31.7648                   
23                        151.9803                  107.2054                  97.0464                   94.541                    73.0616                   47.0425                   81.3941                   89.0                      38.9487                   90.4434                   28.8444                   54.2033                   149.1107                  140.6556                  133.015                   26.2488                   104.2353                  15.1327                   119.6202                  108.4159                  143.1782                  127.5343                  99999.0                   8.2462                    62.3939                   13.3417                   106.3673                  54.6443                   19.2354                   138.8092                  101.5972                  12.2066                   135.0                     183.8695                  7.8102                    131.5295                  128.4445                  155.8621                  101.415                   78.7718                   113.5341                  26.4197                   104.2929                  70.0357                   76.1052                   77.1038                   162.0031                  100.8415                  132.6122                  149.7231                  164.5752                  103.5761                  47.0                      142.2428                  104.8904                  114.1578                  124.1692                  136.0037                  89.0898                   130.3879                  83.5225                   53.2353                   21.2603                   106.3673                  65.437                    154.0195                  
24                        159.4553                  115.434                   105.119                   98.2344                   79.0569                   55.0                      85.1645                   94.5145                   46.4004                   96.8297                   32.5576                   60.4152                   156.6972                  148.6069                  135.1333                  31.7648                   111.072                   19.7231                   124.7758                  116.6619                  148.8624                  132.8345                  8.2462                    99999.0                   65.7343                   21.587                    109.8818                  61.0737                   15.0333                   145.2446                  109.7725                  19.2094                   141.4956                  191.0497                  14.3178                   139.169                   136.6821                  163.4044                  108.8531                  85.0                      121.4331                  32.8938                   110.6029                  71.1126                   78.1025                   84.7172                   169.0                     109.0367                  139.1761                  157.9652                  172.6297                  111.8034                  49.6488                   150.4161                  112.2943                  122.0656                  132.3707                  144.0035                  91.0879                   135.5175                  91.7606                   55.0818                   26.0768                   109.8818                  72.1803                   160.0312                  
25                        115.434                   99.3277                   107.6151                  32.573                    30.0167                   75.4718                   19.6977                   36.7151                   42.19                     46.5725                   86.4696                   97.5756                   164.8302                  115.2779                  71.5681                   80.0625                   63.3246                   47.2652                   62.482                    104.0625                  88.4138                   70.9366                   62.3939                   65.7343                   99999.0                   59.3043                   44.1475                   29.4109                   80.604                    90.1388                   106.9439                  52.0                      87.1321                   141.3542                  67.0075                   147.8276                  118.6634                  120.2082                  124.5793                  36.2215                   90.05                     76.6877                   57.2713                   20.2485                   17.8045                   101.9117                  118.1186                  105.119                   85.5862                   138.6001                  140.5133                  104.6948                  16.5529                   125.3236                  72.3395                   126.7793                  124.4227                  143.5618                  29.1548                   72.8011                   82.2982                   15.0                      78.3135                   44.1475                   35.7351                   101.1781                  
26                        140.1856                  93.9202                   84.0                      90.0888                   64.622                    34.3657                   77.026                    81.2712                   28.0179                   81.0062                   27.1662                   45.3431                   136.8941                  127.9453                  130.8625                  21.1896                   93.8136                   16.2788                   112.272                   95.0789                   134.7368                  119.8708                  13.3417                   21.587                    59.3043                   99999.0                   102.0784                  45.6946                   29.7321                   129.0039                  88.3629                   9.2195                    125.096                   172.5862                  10.6301                   119.2393                  115.1347                  143.934                   89.56                     69.7782                   100.9554                  18.868                    94.8947                   70.5762                   74.9533                   65.0                      151.0927                  87.5728                   122.5887                  136.4001                  151.6476                  90.2552                   45.8803                   129.0775                  93.3381                   101.4002                  110.8873                  123.065                   87.6641                   123.0163                  70.214                    53.1413                   19.0263                   102.0784                  55.5698                   144.9414                  
27                        100.3195                  111.3957                  129.6302                  12.0                      46.5188                   111.1261                  25.0799                   33.3017                   79.9062                   46.7547                   129.0039                  135.3662                  183.8478                  110.6797                  33.8378                   122.0369                  57.2451                   91.2414                   30.4138                   117.5925                  55.1543                   37.6431                   106.3673                  109.8818                  44.1475                   102.0784                  99999.0                   61.6117                   124.7397                  65.3758                   126.0635                  95.5249                   64.0703                   117.2774                  110.5486                  168.5052                  125.9365                  105.3043                  151.1721                  46.8722                   92.2822                   118.1524                  46.0977                   46.2277                   35.805                    131.928                   94.8947                   123.9072                  64.0                      142.2146                  133.6451                  121.6306                  60.4401                   126.2101                  71.6938                   147.411                   137.7679                  159.3644                  26.4008                   37.1618                   102.6158                  56.4624                   121.0372                  0.0                       59.0931                   69.0797                   
28                        100.4988                  72.0069                   78.2304                   50.0                      18.9737                   49.6488                   38.4838                   35.9026                   19.105                    35.805                    70.6116                   73.7564                   135.4843                  94.3716                   93.984                    62.9682                   50.2494                   41.7253                   66.9403                   76.1577                   89.0505                   74.3303                   54.6443                   61.0737                   29.4109                   45.6946                   61.6117                   99999.0                   73.7835                   84.2021                   77.8203                   42.4382                   80.4301                   130.7287                  55.9017                   118.4314                  92.3472                   104.8094                  95.462                    24.1868                   67.4685                   58.5491                   49.6488                   49.2443                   46.7547                   73.4098                   108.3005                  76.0592                   78.1025                   113.0708                  119.5701                  75.9605                   31.0644                   101.3163                  53.6656                   97.4166                   96.1665                   114.6342                  56.2228                   77.6209                   53.3104                   36.8782                   63.3246                   61.6117                   11.6619                   99.4786                   
29                        169.9176                  121.7415                  107.8703                  113.031                   92.2822                   57.9741                   99.925                    108.2266                  57.3847                   109.5536                  25.9615                   56.8859                   156.205                   157.2578                  150.1632                  29.0                      123.065                   33.8378                   138.7984                  122.1966                  162.4131                  146.7413                  19.2354                   15.0333                   80.604                    29.7321                   124.7397                  73.7835                   99999.0                   157.867                   113.5077                  31.3847                   154.0292                  202.2523                  19.2094                   139.0324                  142.6184                  173.6577                  108.1157                  97.9439                   130.4301                  32.249                    123.422                   86.0523                   93.1343                   85.0941                   180.6239                  113.0531                  151.6047                  163.6246                  180.6018                  116.3873                  64.6297                   157.4198                  123.0447                  123.4909                  136.3085                  145.8801                  106.1179                  149.5627                  97.9898                   70.1142                   23.0217                   124.7397                  84.4038                   173.2166                  
30                        38.0789                   81.4923                   110.0273                  67.72                     66.5282                   119.2518                  74.2496                   53.6004                   101.0198                  48.4149                   151.1688                  143.3388                  151.6377                  58.0                      86.5852                   143.1258                  35.8469                   125.7338                  35.0571                   88.0568                   19.799                    29.2746                   138.8092                  145.2446                  90.1388                   129.0039                  65.3758                   84.2021                   157.867                   99999.0                   102.7716                  126.6057                  4.1231                    52.4976                   139.517                   140.4564                  85.4751                   42.72                     135.0741                  60.3075                   55.0818                   138.2245                  34.7131                   103.3683                  93.2309                   125.1439                  29.6142                   100.6231                  7.0711                    94.2603                   75.2928                   96.1041                   104.6375                  77.3369                   43.1045                   122.262                   103.4698                  125.2398                  89.0225                   32.0156                   88.0227                   105.119                   144.9414                  65.3758                   73.4983                   19.0263                   
31                        87.4757                   22.0227                   8.9443                    117.3882                  82.4621                   55.5428                   110.2588                  92.7631                   73.5459                   79.8123                   91.9239                   66.0303                   58.4123                   62.6259                   159.6653                  85.703                    75.5844                   99.0808                   112.7697                  16.4924                   119.6411                  115.4513                  101.5972                  109.7725                  106.9439                  88.3629                   126.0635                  77.8203                   113.5077                  102.7716                  99999.0                   94.0053                   99.0404                   121.0372                  96.3379                   42.45                     34.0588                   88.5268                   33.0606                   79.9312                   48.1664                   81.6088                   85.9593                   127.0157                  123.4909                  34.6554                   107.4663                  2.2361                    96.1041                   52.4309                   78.0064                   7.0711                    107.2241                  52.2015                   62.0322                   21.4009                   22.8035                   37.0                      130.8014                  119.9208                  24.6982                   114.0175                  91.0934                   126.0635                  72.111                    121.6553                  
32                        140.2462                  97.7446                   90.2718                   83.6002                   60.9016                   41.7612                   70.4557                   76.9675                   27.2029                   78.2368                   35.171                    54.4885                   144.3087                  129.7112                  123.3288                  29.9666                   92.0978                   7.0711                    107.7033                  99.4636                   131.0611                  115.5509                  12.2066                   19.2094                   52.0                      9.2195                    95.5249                   42.4382                   31.3847                   126.6057                  94.0053                   99999.0                   122.8007                  171.8982                  15.0333                   126.6057                  119.1008                  144.2012                  97.4064                   66.5733                   102.4744                  28.0179                   92.0869                   61.9839                   66.9104                   72.7324                   149.9333                  93.0484                   120.4201                  140.4635                  153.9351                  95.3362                   37.6563                   132.1893                  93.086                    108.1896                  116.211                   129.4681                  79.7621                   118.4736                  74.3303                   44.643                    26.9258                   95.5249                   53.2635                   141.8344                  
33                        37.6431                   77.8845                   106.2121                  65.7343                   62.9365                   115.1347                  71.6938                   50.4777                   97.0979                   44.6878                   147.136                   139.2157                  148.4756                  55.9017                   86.6833                   139.0899                  31.7805                   122.0246                  34.0588                   84.4808                   22.2036                   29.1204                   135.0                     141.4956                  87.1321                   125.096                   64.0703                   80.4301                   154.0292                  4.1231                    99.0404                   122.8007                  99999.0                   54.7814                   135.6245                  137.0584                  82.4924                   42.45                     131.2402                  56.6392                   51.5461                   134.1827                  31.1127                   100.8464                  90.824                    121.1033                  31.6228                   96.8814                   3.0                       91.9674                   74.2428                   92.4175                   101.4002                  75.0067                   39.0512                   118.6802                  100.2247                  122.0901                  87.0976                   32.311                    84.006                    102.0833                  140.9433                  64.0703                   69.6348                   23.0                      
34                        34.4384                   99.6243                   129.8075                  120.2082                  115.1086                  155.3222                  126.4634                  104.6566                  144.9586                  96.5194                   191.2067                  176.7767                  153.7335                  58.8558                   134.0933                  183.2184                  80.604                    172.2469                  86.885                    104.5466                  64.0312                   79.9062                   183.8695                  191.0497                  141.3542                  172.5862                  117.2774                  130.7287                  202.2523                  52.4976                   121.0372                  171.8982                  54.7814                   99999.0                   183.2075                  148.0135                  91.444                    32.573                    153.5871                  108.4666                  77.3692                   178.219                   84.22                     155.6181                  145.6022                  151.7135                  23.2594                   119.3692                  55.9464                   87.8237                   56.0446                   114.0175                  154.8709                  75.0                      79.3095                   135.2036                  111.3643                  129.062                   141.4814                  81.3941                   116.2755                  156.1858                  186.172                   117.2774                  119.2057                  51.0882                   
35                        150.7481                  103.2473                  91.351                    98.6154                   74.7329                   41.1096                   85.4751                   91.1811                   38.6005                   91.4166                   21.4709                   46.5296                   142.4114                  138.134                   138.2317                  18.4391                   104.4031                  20.3961                   122.0901                  104.0433                  144.931                   129.8075                  7.8102                    14.3178                   67.0075                   10.6301                   110.5486                  55.9017                   19.2094                   139.517                   96.3379                   15.0333                   135.6245                  183.2075                  99999.0                   124.904                   124.3101                  154.4668                  94.541                    80.0625                   111.252                   18.7883                   105.3091                  76.1577                   81.6149                   70.4557                   161.722                   95.7079                   133.1353                  145.4648                  161.623                   98.7168                   52.345                    138.7083                  103.9471                  108.0046                  119.0504                  130.0615                  94.5304                   132.8533                  79.4796                   59.0339                   13.6015                   110.5486                  66.0379                   155.3094                  
36                        117.72                    59.9416                   40.2244                   159.8061                  124.6515                  84.9294                   152.3975                  135.2072                  110.982                   122.1475                  114.0702                  83.2947                   17.72                     90.3549                   202.0718                  110.0409                  116.8118                  132.6989                  154.2368                  53.2353                   158.619                   156.285                   131.5295                  139.169                   147.8276                  119.2393                  168.5052                  118.4314                  139.0324                  140.4564                  42.45                     126.6057                  137.0584                  148.0135                  124.904                   99999.0                   57.4282                   117.2732                  31.0644                   122.3315                  85.6154                   107.2287                  127.5813                  167.5858                  164.8393                  54.4518                   139.3018                  44.5982                   134.2609                  62.5859                   95.5249                   47.2017                   146.2498                  73.0274                   102.5768                  21.2603                   37.6563                   19.9249                   172.7339                  160.7514                  66.6033                   153.4731                  116.0689                  168.5052                  113.8508                  158.7514                  
37                        60.2993                   21.3776                   42.8019                   119.8833                  89.8443                   85.4225                   116.2454                  94.3663                   94.6414                   80.0625                   123.1666                  99.3579                   66.4831                   33.0151                   157.6103                  116.297                   69.2026                   122.9837                  105.3803                  20.5913                   104.6231                  105.5509                  128.4445                  136.6821                  118.6634                  115.1347                  125.9365                  92.3472                   142.6184                  85.4751                   34.0588                   119.1008                  82.4924                   91.444                    124.3101                  57.4282                   99999.0                   60.0083                   63.6946                   85.0941                   34.0588                   111.8034                  80.604                    138.7408                  132.8533                  68.6222                   81.8841                   33.2415                   79.925                    21.3776                   44.1022                   28.3196                   123.4058                  18.3576                   54.4059                   43.9318                   20.0                      40.1622                   137.2334                  109.8772                  44.9222                   128.9961                  121.2023                  125.9365                  83.1865                   102.9563                  
38                        5.0                       67.0522                   97.2677                   105.0762                  91.5478                   124.2014                  108.3421                  84.7231                   117.0043                  73.6817                   160.8633                  144.9172                  124.5351                  27.0                      129.1201                  152.9706                  56.921                    145.341                   76.1183                   72.0347                   61.2944                   71.5681                   155.8621                  163.4044                  120.2082                  143.934                   105.3043                  104.8094                  173.6577                  42.72                     88.5268                   144.2012                  42.45                     32.573                    154.4668                  117.2732                  60.0083                   99999.0                   121.2023                  84.8646                   45.4863                   147.9899                  63.9531                   136.8941                  127.738                   119.2309                  23.7065                   86.8332                   41.7732                   60.1664                   33.9706                   81.4923                   131.8484                  45.1221                   51.3128                   103.3102                  80.0062                   98.9949                   126.2537                  74.6324                   84.22                     134.4061                  156.3106                  105.3043                  93.1504                   53.2635                   
39                        120.3536                  55.0818                   25.0799                   141.2409                  105.2093                  55.7136                   132.1363                  118.3385                  84.8764                   106.8878                  83.0241                   52.2398                   48.0937                   94.8314                   185.0027                  79.1581                   105.6504                  103.8171                  141.8732                  49.366                    151.2118                  145.4648                  101.415                   108.8531                  124.5793                  89.56                     151.1721                  95.462                    108.1157                  135.0741                  33.0606                   97.4064                   131.2402                  153.5871                  94.541                    31.0644                   63.6946                   121.2023                  99999.0                   104.3072                  81.0247                   76.531                    115.1694                  143.534                   142.1724                  24.6982                   140.5133                  35.0143                   128.2692                  77.4209                   107.3313                  40.1123                   120.6731                  81.939                    93.1719                   21.9317                   45.793                    42.5441                   151.4265                  149.8933                  49.7695                   128.2225                  85.2115                   151.1721                  93.2363                   154.0552                  
40                        80.2309                   67.6018                   82.9759                   37.4833                   6.7082                    68.1175                   31.305                    14.5602                   42.3792                   12.0416                   93.9628                   93.086                    138.1919                  79.1012                   80.7094                   86.1278                   28.178                    65.437                    44.1814                   73.2462                   65.0                      50.9902                   78.7718                   85.0                      36.2215                   69.7782                   46.8722                   24.1868                   97.9439                   60.3075                   79.9312                   66.5733                   56.6392                   108.4666                  80.0625                   122.3315                  85.0941                   84.8646                   104.3072                  99999.0                   54.4518                   81.4923                   25.6125                   55.0818                   48.0521                   85.6154                   85.6037                   77.8332                   54.4518                   104.0481                  104.3072                  76.0592                   47.0106                   89.9444                   36.1248                   101.1187                  93.8136                   114.6211                  52.3259                   54.5894                   55.9732                   49.7293                   86.977                    46.8722                   15.1327                   75.2928                   
41                        42.9418                   26.4764                   56.0                      86.9253                   60.1332                   78.8733                   84.6463                   61.6847                   75.5844                   47.4342                   115.9741                  99.4786                   97.7548                   27.313                    123.6002                  108.1896                  35.2278                   104.6948                  71.4213                   32.9848                   73.0068                   72.0069                   113.5341                  121.4331                  90.05                     100.9554                  92.2822                   67.4685                   130.4301                  55.0818                   48.1664                   102.4744                  51.5461                   77.3692                   111.252                   85.6154                   34.0588                   45.4863                   81.0247                   54.4518                   99999.0                   103.2473                  46.6154                   109.4578                  102.4207                  75.0                      60.6383                   46.0977                   48.7032                   50.3289                   52.2015                   41.3038                   97.7394                   35.5106                   20.5913                   67.1863                   49.3964                   71.5612                   105.3613                  76.4003                   38.9102                   102.1763                  111.866                   92.2822                   56.5685                   73.7564                   
42                        144.6928                  91.4166                   75.71                     106.1697                  77.2787                   26.4008                   93.3435                   94.3663                   39.4588                   91.7061                   13.0384                   27.7849                   124.5793                  129.1898                  148.1249                  5.0                       102.4158                  35.0                      125.3196                  91.236                    146.1027                  132.4424                  26.4197                   32.8938                   76.6877                   18.868                    118.1524                  58.5491                   32.249                    138.2245                  81.6088                   28.0179                   134.1827                  178.219                   18.7883                   107.2287                  111.8034                  147.9899                  76.531                    81.4923                   103.2473                  99999.0                   105.3423                  89.1572                   93.0054                   53.0                      157.8132                  81.2712                   131.4838                  132.5028                  151.4761                  84.8646                   64.2573                   127.4245                  99.2975                   91.2688                   104.4031                  113.6354                  105.513                   135.9154                  67.9559                   71.6938                   9.4868                    118.1524                  66.4831                   155.2417                  
43                        59.0339                   68.2495                   91.2853                   42.5793                   31.8277                   88.8144                   44.4072                   20.8806                   67.082                    13.8924                   118.1059                  113.6354                  141.651                   65.0                      77.0065                   110.1363                  11.4018                   91.0494                   26.8328                   74.8131                   41.0                      30.5941                   104.2929                  110.6029                  57.2713                   94.8947                   46.0977                   49.6488                   123.422                   34.7131                   85.9593                   92.0869                   31.1127                   84.22                     105.3091                  127.5813                  80.604                    63.9531                   115.1694                  25.6125                   46.6154                   105.3423                  99999.0                   73.0068                   63.7887                   100.449                   61.0574                   83.7257                   29.0689                   96.1769                   88.8144                   80.455                    70.7248                   80.1124                   26.2488                   107.1868                  94.1116                   116.1809                  63.0714                   34.9285                   65.4599                   72.0069                   111.4854                  46.0977                   39.3573                   50.0899                   
44                        132.0038                  119.5492                  127.4245                  37.6431                   49.366                    92.3147                   29.1548                   52.1728                   59.4138                   64.195                    97.1236                   112.681                   184.7079                  134.0037                  64.7765                   91.7606                   80.6226                   55.7853                   71.8471                   124.3101                  98.2293                   80.2122                   70.0357                   71.1126                   20.2485                   70.5762                   46.2277                   49.2443                   86.0523                   103.3683                  127.0157                  61.9839                   100.8464                  155.6181                  76.1577                   167.5858                  138.7408                  136.8941                  143.534                   55.0818                   109.4578                  89.1572                   73.0068                   99999.0                   10.6301                   120.283                   132.4009                  125.2198                  99.7246                   158.4929                  159.0786                  124.8879                  25.0599                   144.8862                  91.0                      146.6322                  144.6686                  163.7193                  21.5407                   81.0555                   102.4158                  17.4642                   88.8876                   46.2277                   55.9732                   111.7721                  
45                        122.8088                  114.3897                  124.6194                  27.0185                   43.0116                   93.1933                   19.4165                   43.1856                   59.9083                   56.0357                   101.9804                  114.9348                  181.6645                  126.1428                  57.0351                   96.0469                   72.0625                   61.2944                   61.2944                   119.5073                  87.6584                   69.6348                   76.1052                   78.1025                   17.8045                   74.9533                   35.805                    46.7547                   93.1343                   93.2309                   123.4909                  66.9104                   90.824                    145.6022                  81.6149                   164.8393                  132.8533                  127.738                   142.1724                  48.0521                   102.4207                  93.0054                   63.7887                   10.6301                   99999.0                   119.6704                  122.4296                  121.5936                  89.8109                   152.0822                  151.0132                  120.8305                  29.2746                   137.9311                  83.2947                   143.6941                  140.0357                  159.778                   13.0                      70.4344                   98.7927                   23.0217                   93.7443                   35.805                    51.4782                   101.2423                  
46                        117.3925                  52.8394                   26.4008                   121.3136                  85.4225                   31.0161                   111.2205                  100.09                    61.0737                   90.2497                   61.0                      32.2025                   72.0069                   94.8947                   165.5295                  56.1427                   92.3472                   79.1202                   126.3725                  49.4065                   139.23                    131.0343                  77.1038                   84.7172                   101.9117                  65.0                      131.928                   73.4098                   85.0941                   125.1439                  34.6554                   72.7324                   121.1033                  151.7135                  70.4557                   54.4518                   68.6222                   119.2309                  24.6982                   85.6154                   75.0                      53.0                      100.449                   120.283                   119.6704                  99999.0                   135.595                   35.3836                   118.1059                  86.8332                   112.2943                  40.4599                   96.8297                   86.5563                   82.0549                   38.6394                   55.7584                   61.1882                   129.6302                  135.3292                  37.2156                   104.4844                  62.0725                   131.928                   72.9452                   144.0868                  
47                        21.8403                   85.4751                   115.849                   97.2677                   92.2009                   136.0                     103.2473                  81.4125                   123.2396                  73.6003                   170.8479                  158.4961                  147.4619                  49.2443                   113.9912                  162.8066                  58.0517                   149.9667                  64.4981                   91.1976                   43.7379                   58.0345                   162.0031                  169.0                     118.1186                  151.0927                  94.8947                   108.3005                  180.6239                  29.6142                   107.4663                  149.9333                  31.6228                   23.2594                   161.722                   139.3018                  81.8841                   23.7065                   140.5133                  85.6037                   60.6383                   157.8132                  61.0574                   132.4009                  122.4296                  135.595                   99999.0                   105.5746                  32.6956                   83.7735                   56.8507                   100.4042                  131.7649                  68.3081                   58.5235                   124.0363                  101.7104                  121.5977                  118.6002                  60.0333                   98.9798                   132.9699                  165.4237                  94.8947                   96.8969                   32.6956                   
48                        85.703                    20.0998                   10.4403                   115.2779                  80.4301                   55.0818                   108.2312                  90.6091                   72.1803                   77.6209                   91.7878                   66.4003                   60.4401                   61.0983                   157.4929                  85.44                     73.3485                   98.0204                   110.5351                  14.8661                   117.4436                  113.2166                  100.8415                  109.0367                  105.119                   87.5728                   123.9072                  76.0592                   113.0531                  100.6231                  2.2361                    93.0484                   96.8814                   119.3692                  95.7079                   44.5982                   33.2415                   86.8332                   35.0143                   77.8332                   46.0977                   81.2712                   83.7257                   125.2198                  121.5936                  35.3836                   105.5746                  99999.0                   93.9415                   52.1536                   77.0065                   5.3852                    105.622                   51.225                    59.808                    23.6008                   23.3452                   38.6264                   128.8099                  117.686                   22.8254                   112.361                   90.7579                   123.9072                  70.1783                   119.5199                  
49                        36.8782                   75.0                      103.2473                  65.1153                   60.8276                   112.272                   70.5762                   48.8774                   94.578                    42.45                     144.4507                  136.3085                  145.7944                  53.9073                   87.5957                   136.4001                  29.0689                   119.7539                  34.3657                   81.6088                   24.6982                   30.0832                   132.6122                  139.1761                  85.5862                   122.5887                  64.0                      78.1025                   151.6047                  7.0711                    96.1041                   120.4201                  3.0                       55.9464                   133.1353                  134.2609                  79.925                    41.7732                   128.2692                  54.4518                   48.7032                   131.4838                  29.0689                   99.7246                   89.8109                   118.1059                  32.6956                   93.9415                   99999.0                   89.8053                   72.9178                   89.4986                   99.6243                   72.8354                   36.0555                   115.8016                  97.509                    119.4194                  86.4928                   33.541                    81.0062                   100.4988                  138.3112                  64.0                      67.2012                   26.0                      
50                        62.1691                   42.7551                   60.4401                   137.2334                  109.2383                  106.1037                  134.7665                  112.0089                  115.9741                  97.7394                   143.5584                  118.461                   66.0681                   36.4005                   172.5688                  136.8941                  84.9706                   144.3607                  119.0378                  41.4367                   114.0219                  117.9237                  149.7231                  157.9652                  138.6001                  136.4001                  142.2146                  113.0708                  163.6246                  94.2603                   52.4309                   140.4635                  91.9674                   87.8237                   145.4648                  62.5859                   21.3776                   60.1664                   77.4209                   104.0481                  50.3289                   132.5028                  96.1769                   158.4929                  152.0822                  86.8332                   83.7735                   52.1536                   89.8053                   99999.0                   33.1361                   47.8853                   144.1249                  16.9706                   70.7743                   55.7584                   31.8904                   42.7551                   155.5892                  122.0246                  66.2193                   149.4824                  141.9472                  142.2146                  103.4843                  109.859                   
51                        37.8021                   60.8769                   86.8389                   131.3811                  110.5486                  125.6025                  132.1363                  108.1665                  127.3892                  95.0                      163.6001                  142.1302                  99.0                      25.318                    160.256                   156.237                   79.1581                   156.5439                  106.2826                  63.0317                   94.578                    102.9563                  164.5752                  172.6297                  140.5133                  151.6476                  133.6451                  119.5701                  180.6018                  75.2928                   78.0064                   153.9351                  74.2428                   56.0446                   161.623                   95.5249                   44.1022                   33.9706                   107.3313                  104.3072                  52.2015                   151.4761                  88.8144                   159.0786                  151.0132                  112.2943                  56.8507                   77.0065                   72.9178                   33.1361                   99999.0                   71.8401                   149.459                   25.807                    68.1836                   86.539                    61.8466                   75.8024                   151.7432                  106.4519                  83.6002                   153.4438                  160.5895                  133.6451                  108.4666                  87.2067                   
52                        80.4114                   15.0                      15.8114                   113.3578                  79.0569                   58.5235                   106.8316                  88.3912                   73.437                    75.0733                   95.7079                   71.0634                   62.2415                   55.7136                   155.0516                  89.1572                   69.8355                   100.045                   107.1868                  9.4868                    113.2254                  109.5673                  103.5761                  111.8034                  104.6948                  90.2552                   121.6306                  75.9605                   116.3873                  96.1041                   7.0711                    95.3362                   92.4175                   114.0175                  98.7168                   47.2017                   28.3196                   81.4923                   40.1123                   76.0592                   41.3038                   84.8646                   80.455                    124.8879                  120.8305                  40.4599                   100.4042                  5.3852                    89.4986                   47.8853                   71.8401                   99999.0                   106.0424                  46.0977                   55.9464                   26.8328                   21.0238                   38.9487                   127.5813                  114.0395                  22.8035                   112.5789                  94.3398                   121.6306                  69.3542                   114.9348                  
53                        127.236                   102.9563                  106.5129                  49.0408                   40.3113                   67.897                    36.2491                   51.0882                   35.805                    58.5918                   72.7805                   87.6641                   163.6857                  124.1491                  86.0233                   67.0522                   75.1532                   32.0624                   78.6003                   106.8878                  104.2353                  87.0057                   47.0                      49.6488                   16.5529                   45.8803                   60.4401                   31.0644                   64.6297                   104.6375                  107.2241                  37.6563                   101.4002                  154.8709                  52.345                    146.2498                  123.4058                  131.8484                  120.6731                  47.0106                   97.7394                   64.2573                   70.7248                   25.0599                   29.2746                   96.8297                   131.7649                  105.622                   99.6243                   144.1249                  149.459                   106.0424                  99999.0                   132.1363                  82.0061                   125.7179                  126.6057                  144.2221                  42.19                     89.0505                   83.2406                   7.8102                    64.5368                   60.4401                   41.1947                   116.6919                  
54                        46.4866                   36.0555                   61.0328                   121.758                   95.5249                   101.2423                  120.075                   96.8401                   106.48                    82.7103                   139.23                    116.7262                  79.4292                   19.7231                   156.0641                  132.0757                  69.0797                   135.44                    102.3426                  37.4833                   97.0824                   101.0445                  142.2428                  150.4161                  125.3236                  129.0775                  126.2101                  101.3163                  157.4198                  77.3369                   52.2015                   132.1893                  75.0067                   75.0                      138.7083                  73.0274                   18.3576                   45.1221                   81.939                    89.9444                   35.5106                   127.4245                  80.1124                   144.8862                  137.9311                  86.5563                   68.3081                   51.225                    72.8354                   16.9706                   25.807                    46.0977                   132.1363                  99999.0                   55.3624                   61.6847                   37.108                    54.1479                   140.684                   105.119                   59.5399                   137.0                     136.6931                  126.2101                  91.022                    93.1933                   
55                        47.2017                   42.72                     68.4105                   66.4831                   42.4264                   77.8781                   64.9384                   41.4849                   65.9469                   27.4591                   112.3299                  101.1929                  116.0172                  43.0116                   103.2327                  104.2929                  14.8661                   94.0479                   52.0096                   49.3964                   58.0517                   53.7122                   104.8904                  112.2943                  72.3395                   93.3381                   71.6938                   53.6656                   123.0447                  43.1045                   62.0322                   93.086                    39.0512                   79.3095                   103.9471                  102.5768                  54.4059                   51.3128                   93.1719                   36.1248                   20.5913                   99.2975                   26.2488                   91.0                      83.2947                   82.0549                   58.5235                   59.808                    36.0555                   70.7743                   68.1836                   55.9464                   82.0061                   55.3624                   99999.0                   82.7647                   68.1175                   90.2718                   85.3756                   58.1808                   45.0111                   85.5102                   107.0047                  71.6938                   42.0476                   62.0322                   
56                        103.0437                  40.8044                   19.2354                   138.6001                  103.3925                  67.1193                   131.1373                  114.1096                  90.824                    101.2126                  99.6393                   70.214                    38.0789                   76.4199                   181.0442                  94.6414                   96.6488                   113.9517                  133.9589                  34.2053                   139.7856                  136.4001                  114.1578                  122.0656                  126.7793                  101.4002                  147.411                   97.4166                   123.4909                  122.262                   21.4009                   108.1896                  118.6802                  135.2036                  108.0046                  21.2603                   43.9318                   103.3102                  21.9317                   101.1187                  67.1863                   91.2688                   107.1868                  146.6322                  143.6941                  38.6394                   124.0363                  23.6008                   115.8016                  55.7584                   86.539                    26.8328                   125.7179                  61.6847                   82.7647                   99999.0                   24.6982                   22.561                    151.4893                  140.8723                  45.3431                   132.8232                  100.4988                  147.411                   92.6175                   140.9184                  
57                        80.2247                   26.4008                   29.5296                   130.4301                  97.5295                   78.339                    125.032                   105.0                     94.4299                   91.0494                   114.5862                  87.818                    48.3735                   53.0094                   170.5315                  108.4666                  82.8794                   121.0165                  120.1041                  20.5913                   122.0901                  121.2477                  124.1692                  132.3707                  124.4227                  110.8873                  137.7679                  96.1665                   136.3085                  103.4698                  22.8035                   116.211                   100.2247                  111.3643                  119.0504                  37.6563                   20.0                      80.0062                   45.793                    93.8136                   49.3964                   104.4031                  94.1116                   144.6686                  140.0357                  55.7584                   101.7104                  23.3452                   97.509                    31.8904                   61.8466                   21.0238                   126.6057                  37.108                    68.1175                   24.6982                   99999.0                   22.2036                   145.9897                  125.6702                  43.566                    132.9662                  113.8859                  137.7679                  88.7694                   121.4907                  
58                        99.8248                   48.0833                   39.2046                   151.6476                  117.8855                  89.0056                   145.6091                  126.3725                  110.354                   112.6099                  122.1843                  92.72                     26.4008                   72.3671                   192.3538                  117.0982                  104.9952                  134.9518                  142.2744                  41.7732                   144.059                   143.4503                  136.0037                  144.0035                  143.5618                  123.065                   159.3644                  114.6342                  145.8801                  125.2398                  37.0                      129.4681                  122.0901                  129.062                   130.0615                  19.9249                   40.1622                   98.9949                   42.5441                   114.6211                  71.5612                   113.6354                  116.1809                  163.7193                  159.778                   61.1882                   121.5977                  38.6264                   119.4194                  42.7551                   75.8024                   38.9487                   144.2221                  54.1479                   90.2718                   22.561                    22.2036                   99999.0                   166.4332                  147.8716                  61.327                    150.9868                  122.9187                  159.3644                  108.3005                  143.0                     
59                        121.2642                  119.8833                  132.6537                  21.3776                   48.5489                   104.3168                  21.0238                   43.9318                   71.1196                   57.9741                   114.7563                  126.7162                  189.201                   127.4245                  44.0454                   108.683                   72.6911                   74.2428                   55.1543                   125.3994                  80.9506                   63.0714                   89.0898                   91.0879                   29.1548                   87.6641                   26.4008                   56.2228                   106.1179                  89.0225                   130.8014                  79.7621                   87.0976                   141.4814                  94.5304                   172.7339                  137.2334                  126.2537                  151.4265                  52.3259                   105.3613                  105.513                   63.0714                   21.5407                   13.0                      129.6302                  118.6002                  128.8099                  86.4928                   155.5892                  151.7432                  127.5813                  42.19                     140.684                   85.3756                   151.4893                  145.9897                  166.4332                  99999.0                   63.1348                   106.2121                  36.0139                   106.5317                  26.4008                   58.8982                   94.8103                   
60                        69.8928                   100.8464                  125.7179                  43.4166                   58.6941                   122.0656                  53.8145                   41.7612                   96.5401                   46.0109                   148.1924                  147.0544                  173.8994                  86.8389                   54.5711                   140.4635                  44.3847                   115.8706                  10.7703                   107.5407                  18.0278                   4.4721                    130.3879                  135.5175                  72.8011                   123.0163                  37.1618                   77.6209                   149.5627                  32.0156                   119.9208                  118.4736                  32.311                    81.3941                   132.8533                  160.7514                  109.8772                  74.6324                   149.8933                  54.5894                   76.4003                   135.9154                  34.9285                   81.0555                   70.4344                   135.3292                  60.0333                   117.686                   33.541                    122.0246                  106.4519                  114.0395                  89.0505                   105.119                   58.1808                   140.8723                  125.6702                  147.8716                  63.1348                   99999.0                   100.2846                  87.3212                   140.9433                  37.1618                   69.7209                   31.9531                   
61                        81.8413                   23.7697                   27.0185                   93.4345                   58.0517                   42.0119                   85.7963                   69.4046                   51.0392                   57.3062                   80.0                      60.7454                   83.006                    62.2896                   136.4001                  72.6705                   56.2939                   78.5175                   92.1141                   25.1794                   102.7035                  95.8801                   83.5225                   91.7606                   82.2982                   70.214                    102.6158                  53.3104                   97.9898                   88.0227                   24.6982                   74.3303                   84.006                    116.2755                  79.4796                   66.6033                   44.9222                   84.22                     49.7695                   55.9732                   38.9102                   67.9559                   65.4599                   102.4158                  98.7927                   37.2156                   98.9798                   22.8254                   81.0062                   66.2193                   83.6002                   22.8035                   83.2406                   59.5399                   45.0111                   45.3431                   43.566                    61.327                    106.2121                  100.2846                  99999.0                   89.8109                   77.1751                   102.6158                  47.4342                   107.0047                  
62                        129.6919                  108.8531                  113.5958                  45.6508                   43.1741                   75.6902                   33.6006                   51.6236                   43.4166                   60.7454                   79.8123                   95.4149                   170.845                   128.1327                  80.0562                   74.3303                   77.4919                   38.6394                   77.1557                   113.031                   103.2376                  85.6329                   53.2353                   55.0818                   15.0                      53.1413                   56.4624                   36.8782                   70.1142                   105.119                   114.0175                  44.643                    102.0833                  156.1858                  59.0339                   153.4731                  128.9961                  134.4061                  128.2225                  49.7293                   102.1763                  71.6938                   72.0069                   17.4642                   23.0217                   104.4844                  132.9699                  112.361                   100.4988                  149.4824                  153.4438                  112.5789                  7.8102                    137.0                     85.5102                   132.8232                  132.9662                  150.9868                  36.0139                   87.3212                   89.8109                   99999.0                   71.5681                   56.4624                   46.0435                   116.1034                  
63                        152.8987                  100.7224                  85.1469                   109.0413                  82.28                     35.8469                   96.0052                   99.2018                   44.5982                   97.6934                   8.2462                    34.7851                   133.3042                  138.058                   149.8566                  6.0828                    109.2749                  33.2415                   130.2498                  100.6479                  151.921                   137.6408                  21.2603                   26.0768                   78.3135                   19.0263                   121.0372                  63.3246                   23.0217                   144.9414                  91.0934                   26.9258                   140.9433                  186.172                   13.6015                   116.0689                  121.2023                  156.3106                  85.2115                   86.977                    111.866                   9.4868                    111.4854                  88.8876                   93.7443                   62.0725                   165.4237                  90.7579                   138.3112                  141.9472                  160.5895                  94.3398                   64.5368                   136.6931                  107.0047                  100.4988                  113.8859                  122.9187                  106.5317                  140.9433                  77.1751                   71.5681                   99999.0                   121.0372                  72.2357                   161.5488                  
64                        100.3195                  111.3957                  129.6302                  12.0                      46.5188                   111.1261                  25.0799                   33.3017                   79.9062                   46.7547                   129.0039                  135.3662                  183.8478                  110.6797                  33.8378                   122.0369                  57.2451                   91.2414                   30.4138                   117.5925                  55.1543                   37.6431                   106.3673                  109.8818                  44.1475                   102.0784                  0.0                       61.6117                   124.7397                  65.3758                   126.0635                  95.5249                   64.0703                   117.2774                  110.5486                  168.5052                  125.9365                  105.3043                  151.1721                  46.8722                   92.2822                   118.1524                  46.0977                   46.2277                   35.805                    131.928                   94.8947                   123.9072                  64.0                      142.2146                  133.6451                  121.6306                  60.4401                   126.2101                  71.6938                   147.411                   137.7679                  159.3644                  26.4008                   37.1618                   102.6158                  56.4624                   121.0372                  99999.0                   59.0931                   69.0797                   
65                        88.8369                   63.6003                   73.7564                   48.3735                   12.6491                   53.3385                   38.9487                   29.0689                   27.7308                   25.4951                   79.0569                   78.2304                   130.4301                  83.1986                   92.5905                   71.1688                   38.8973                   53.0754                   59.3043                   68.352                    79.712                    66.0984                   65.437                    72.1803                   35.7351                   55.5698                   59.0931                   11.6619                   84.4038                   73.4983                   72.111                    53.2635                   69.6348                   119.2057                  66.0379                   113.8508                  83.1865                   93.1504                   93.2363                   15.1327                   56.5685                   66.4831                   39.3573                   55.9732                   51.4782                   72.9452                   96.8969                   70.1783                   67.2012                   103.4843                  108.4666                  69.3542                   41.1947                   91.022                    42.0476                   92.6175                   88.7694                   108.3005                  58.8982                   69.7209                   47.4342                   46.0435                   72.2357                   59.0931                   99999.0                   89.4427                   
66                        49.5177                   100.2247                  128.9961                  74.4312                   80.9938                   137.2771                  83.4086                   66.0681                   117.1708                  63.9531                   168.0774                  161.6168                  169.3871                  73.4983                   83.0241                   160.0781                  53.6004                   140.346                   39.9625                   106.7333                  13.9284                   31.7648                   154.0195                  160.0312                  101.1781                  144.9414                  69.0797                   99.4786                   173.2166                  19.0263                   121.6553                  141.8344                  23.0                      51.0882                   155.3094                  158.7514                  102.9563                  53.2635                   154.0552                  75.2928                   73.7564                   155.2417                  50.0899                   111.7721                  101.2423                  144.0868                  32.6956                   119.5199                  26.0                      109.859                   87.2067                   114.9348                  116.6919                  93.1933                   62.0322                   140.9184                  121.4907                  143.0                     94.8103                   31.9531                   107.0047                  116.1034                  161.5488                  69.0797                   89.4427                   99999.0                   
;
SCALAR TOTAL  /66/;
SCALAR NODES  /60/;
SCALAR W  /2/;
SCALAR Y  /132/;
SCALAR M  /1/;
BINARY VARIABLE X(I,J,K)  x variable ;
INTEGER VARIABLE U(K,O)    u variable ;
VARIABLE   Z         objective ;
EQUATIONS
CON1(K)   constraint 1
CON2(K)   constraint 2
CON3   constraint 3
CON4(O)   constraint 4
CON5(O,K)   constraint 5
CON6(O,K)   constraint 6
CON7(K)   constraint 7
CON10(O,P,K)   constraint 10
CON11(O,K)   constraint 11;
CON1(K).. SUM(O,X(K,O,K)) =E= 1;
CON2(K).. SUM(O,X(O,K,K)) =E= 1;
CON3..  SUM((K,L),X(K,L,K)) =E= 0;
CON4(O) .. SUM(K,X(K,O,K)) + SUM((P,K),X(P,O,K)) =e= W;
CON5(O,K) .. X(K,O,K) + SUM(P,X(P,O,K)) =L= 1;
CON6(O,K) .. X(K,O,K) + SUM(P,X(P,O,K)) - X(O,K,K) - SUM(P,X(O,P,K)) =e= 0;
CON7(K) .. Z =G= SUM(O,C(K,O)*X(K,O,K) + C(O,K)*X(O,K,K)) + SUM((P,O),C(P,O)*X(P,O,K));
CON10(O,P,K) .. U(K,O) - U(K,P) + (TOTAL-1)*X(O,P,K) + (TOTAL-3)*X(P,O,K) =L= (TOTAL-2);
CON11(O,K) .. X(O,O,K) =e= 0;
MODEL TRANSPORT /ALL/;
Option Reslim = 28800;
SOLVE TRANSPORT USING MIP MINIMIZING Z ;
