SET
I  first /1*54/
K(I)  depot1 /1*4/
O(I)  node1 /5*54/
alias(I,J);
alias(K,L);
alias(O,P);
TABLE C(I,J)  node to node
                          1                         2                         3                         4                         5                         6                         7                         8                         9                         10                        11                        12                        13                        14                        15                        16                        17                        18                        19                        20                        21                        22                        23                        24                        25                        26                        27                        28                        29                        30                        31                        32                        33                        34                        35                        36                        37                        38                        39                        40                        41                        42                        43                        44                        45                        46                        47                        48                        49                        50                        51                        52                        53                        54                        
1                         99999.0                   99999.0                   99999.0                   99999.0                   39.8246                   22.6274                   18.6815                   22.2036                   28.4605                   18.6815                   14.5602                   17.8045                   22.8035                   21.0238                   36.0555                   59.9416                   57.3149                   50.1597                   43.4626                   44.8219                   50.4777                   50.9608                   48.3735                   48.1041                   45.607                    37.4433                   32.2025                   26.0                      31.0644                   36.7967                   38.5876                   38.6005                   40.05                     40.05                     43.9318                   49.0408                   64.1405                   55.2178                   41.5933                   49.6488                   12.0                      32.0156                   56.7186                   68.3081                   67.5426                   61.0328                   65.4905                   77.4145                   73.6003                   65.1153                   56.6392                   38.4187                   17.088                    10.4403                   
2                         99999.0                   99999.0                   99999.0                   99999.0                   70.1783                   53.1507                   47.0106                   38.6005                   28.1603                   15.2315                   20.6155                   35.3553                   47.8017                   51.3128                   65.8559                   88.8144                   81.7068                   71.8401                   59.4138                   54.1479                   50.3289                   41.4005                   27.2947                   21.095                    15.0                      12.3693                   14.1421                   25.0                      41.5933                   51.3517                   57.0088                   61.5224                   66.2193                   66.2193                   72.6154                   79.6492                   93.4077                   85.8021                   70.0071                   71.0634                   25.0                      19.6977                   33.5261                   41.0488                   38.3275                   34.0                      49.0918                   71.218                    72.0694                   67.4166                   59.7746                   43.4166                   39.3573                   39.6232                   
3                         99999.0                   99999.0                   99999.0                   99999.0                   67.4166                   51.6236                   41.4005                   29.1548                   34.0147                   49.0306                   61.8466                   69.0652                   70.0071                   58.0086                   49.7293                   56.8859                   36.7696                   25.0                      11.4018                   8.0                       20.5183                   35.805                    52.9245                   62.3618                   71.4493                   74.3303                   73.3485                   74.4648                   82.3772                   87.4586                   87.6926                   84.5044                   81.5414                   81.5414                   78.721                    67.082                    62.1691                   73.8241                   77.8267                   95.4254                   61.7171                   44.1814                   59.0593                   73.9256                   79.2023                   68.8767                   50.9313                   40.4475                   31.0161                   20.025                    14.8661                   19.105                    34.8281                   45.2769                   
4                         99999.0                   99999.0                   99999.0                   99999.0                   26.2488                   20.025                    20.5913                   33.2866                   49.93                     52.6308                   53.4883                   50.1597                   42.5793                   27.2947                   7.8102                    21.4009                   22.8473                   23.6008                   32.249                    43.0116                   57.5587                   67.6757                   75.7166                   80.0562                   81.8352                   76.0592                   71.1758                   63.7887                   62.0322                   62.1691                   58.8218                   51.8941                   45.4863                   45.4863                   38.8973                   23.5372                   26.1725                   30.2655                   38.9487                   61.0574                   50.2892                   59.8164                   84.0595                   98.2293                   100.005                   91.4002                   84.7585                   83.006                    74.4312                   63.5059                   57.0351                   46.5725                   29.0                      28.6356                   
5                         39.8246                   70.1783                   67.4166                   26.2488                   99999.0                   19.2354                   30.0167                   48.0104                   62.8013                   58.1808                   51.0882                   40.8044                   28.178                    18.868                    18.6011                   34.7131                   47.8017                   49.8197                   56.0803                   65.0                      77.5242                   84.1487                   86.6833                   87.7268                   85.1469                   75.0733                   68.593                    57.0088                   48.4665                   44.7214                   39.0512                   30.0666                   21.587                    21.587                    12.8062                   12.3693                   36.0555                   16.4012                   13.4164                   37.0                      46.7547                   69.9214                   95.2103                   107.7033                  107.3313                  100.4639                  100.6032                  104.561                   97.2677                   86.6833                   79.3095                   65.192                    41.1096                   33.2415                   
6                         22.6274                   53.1507                   51.6236                   20.025                    19.2354                   99999.0                   11.1803                   29.0689                   43.566                    39.9625                   36.0555                   30.4138                   22.8035                   7.6158                    14.5602                   38.8973                   42.2019                   39.4462                   40.8044                   47.927                    59.2284                   65.0308                   67.6757                   69.3542                   68.1175                   59.8164                   54.0833                   44.9444                   42.0119                   42.45                     39.8121                   34.2053                   30.0                      30.0                      27.8927                   26.6271                   42.5441                   33.121                    26.5707                   44.5533                   32.249                    50.9215                   76.2168                   89.0505                   89.1852                   81.8596                   81.3941                   86.5852                   80.0562                   69.857                    62.0322                   46.6905                   22.0                      14.3178                   
7                         18.6815                   47.0106                   41.4005                   20.5913                   30.0167                   11.1803                   99999.0                   18.0                      33.2415                   32.5269                   33.2415                   32.5576                   29.4109                   16.6433                   19.2094                   41.8808                   39.0128                   33.2415                   31.1127                   37.1214                   48.0521                   54.1479                   58.1808                   61.0328                   61.6198                   55.4707                   50.6952                   44.2832                   45.607                    48.3011                   47.2017                   43.1856                   40.3113                   40.3113                   39.0512                   35.4683                   46.4004                   42.3792                   37.6431                   54.037                    30.4138                   41.5933                   66.7083                   80.1311                   81.0247                   73.0616                   70.7107                   75.4321                   69.0797                   59.0339                   51.0784                   35.5106                   11.1803                   8.2462                    
8                         22.2036                   38.6005                   29.1548                   33.2866                   48.0104                   29.0689                   18.0                      99999.0                   16.6433                   23.5372                   33.2415                   40.0                      42.4382                   33.2415                   35.1141                   53.9073                   43.382                    33.2415                   22.3607                   22.6716                   30.6757                   36.2215                   42.4382                   47.4236                   51.4296                   49.6488                   47.0106                   45.8803                   53.2541                   58.7282                   59.6657                   57.8014                   56.648                    56.648                    56.7186                   52.6308                   59.0339                   59.6657                   55.109                    68.9638                   32.6956                   26.8701                   50.774                    65.0                      67.1789                   58.258                    52.9528                   58.1893                   52.8394                   43.6005                   35.2278                   18.0278                   7.2801                    17.8885                   
9                         28.4605                   28.1603                   34.0147                   49.93                     62.8013                   43.566                    33.2415                   16.6433                   99999.0                   16.6433                   32.5269                   44.4185                   51.2445                   46.0                      51.4782                   70.4344                   58.2495                   47.0106                   32.573                    26.0192                   24.2074                   22.561                    25.807                    31.6228                   38.0789                   40.4475                   40.1622                   44.2041                   56.2228                   63.8122                   66.6408                   67.0522                   67.897                    67.897                    70.0                      68.6222                   75.6042                   75.5844                   68.0294                   78.1089                   34.2053                   11.1803                   34.1321                   48.4149                   50.9902                   41.7732                   38.0132                   49.6488                   47.4236                   40.8167                   32.6497                   15.2971                   22.1359                   30.0167                   
10                        18.6815                   15.2315                   49.0306                   52.6308                   58.1808                   39.9625                   32.5269                   23.5372                   16.6433                   99999.0                   16.6433                   30.3645                   40.0125                   39.5601                   51.6624                   74.027                    66.4831                   56.7539                   45.0111                   41.2311                   40.8044                   36.3593                   30.0167                   29.5466                   29.2062                   26.1725                   24.3311                   27.6586                   40.8167                   49.2443                   53.1601                   55.3263                   58.0775                   58.0775                   62.5859                   66.5733                   78.7464                   73.0616                   60.208                    65.9242                   19.3132                   14.5602                   38.2099                   49.6488                   49.2443                   42.3792                   48.7647                   65.2993                   63.8905                   57.4543                   49.2443                   31.3847                   24.1868                   25.807                    
11                        14.5602                   20.6155                   61.8466                   53.4883                   51.0882                   36.0555                   33.2415                   33.2415                   32.5269                   16.6433                   99999.0                   15.0                      27.2029                   32.5269                   50.1199                   74.2496                   71.7008                   64.0                      55.5428                   54.5619                   56.6392                   53.0                      44.7214                   41.1096                   34.9285                   24.0416                   18.0278                   12.6491                   24.1868                   32.8938                   37.4833                   41.1096                   45.607                    45.607                    52.3259                   61.5549                   78.2943                   67.2086                   49.6588                   51.0392                   4.4721                    30.8707                   52.2398                   61.4003                   58.9406                   54.231                    64.846                    81.8352                   79.9312                   72.8011                   64.405                    46.0435                   30.0666                   25.0                      
12                        17.8045                   35.3553                   69.0652                   50.1597                   40.8044                   30.4138                   32.5576                   40.0                      44.4185                   30.3645                   15.0                      99999.0                   13.6015                   24.3516                   44.911                    69.1231                   71.1758                   65.7343                   60.8276                   62.6259                   67.624                    66.2118                   59.5399                   56.0803                   49.0408                   36.2353                   29.1548                   16.2788                   13.4164                   19.4165                   22.8035                   26.1725                   31.3847                   31.3847                   39.4081                   52.4786                   72.4224                   57.2014                   36.6197                   36.0555                   11.1803                   44.9222                   67.1863                   76.3217                   73.5459                   69.1809                   79.1202                   94.0319                   90.9065                   82.7345                   74.2496                   55.9017                   34.4819                   25.2982                   
13                        22.8035                   47.8017                   70.0071                   42.5793                   28.178                    22.8035                   29.4109                   42.4382                   51.2445                   40.0125                   27.2029                   13.6015                   99999.0                   15.2971                   36.0555                   59.3043                   65.0                      61.7414                   60.3075                   64.6607                   72.4707                   73.7631                   70.0                      67.897                    62.0322                   49.7393                   42.72                     29.7321                   20.6155                   19.6469                   17.8045                   15.8114                   18.4391                   18.4391                   25.807                    40.3113                   61.9839                   44.4185                   23.0217                   26.9258                   22.8035                   54.231                    78.0577                   88.2836                   86.1278                   81.0494                   88.1192                   99.7447                   95.1893                   86.0233                   77.666                    60.0333                   35.609                    24.8395                   
14                        21.0238                   51.3128                   58.0086                   27.2947                   18.868                    7.6158                    16.6433                   33.2415                   46.0                      39.5601                   32.5269                   24.3516                   15.2971                   99999.0                   21.0238                   44.911                    49.7293                   47.0106                   47.5079                   53.7122                   63.8905                   68.1836                   68.6586                   69.0797                   66.2873                   56.5685                   50.3289                   39.8246                   35.0571                   34.9285                   32.2025                   26.9072                   23.7065                   23.7065                   24.0                      29.0689                   48.0833                   34.7131                   22.0907                   37.5366                   28.3196                   51.9711                   77.1298                   89.1964                   88.5664                   81.9329                   84.006                    91.3947                   85.4927                   75.591                    67.5426                   51.2445                   25.9615                   16.0312                   
15                        36.0555                   65.8559                   49.7293                   7.8102                    18.6011                   14.5602                   19.2094                   35.1141                   51.4782                   51.6624                   50.1199                   44.911                    36.0555                   21.0238                   99999.0                   24.3516                   30.4138                   31.241                    38.3275                   48.2597                   62.0322                   70.8308                   76.9415                   80.2122                   80.6226                   73.4983                   68.0955                   59.4643                   56.0803                   55.4437                   51.6624                   44.3847                   37.7359                   37.7359                   31.1448                   18.0278                   28.178                    25.0799                   31.1448                   53.3385                   46.5188                   60.5392                   85.4225                   99.1262                   100.2098                  92.1141                   87.8009                   88.278                    80.2309                   69.4262                   62.514                    50.3587                   29.5296                   26.2488                   
16                        59.9416                   88.8144                   56.8859                   21.4009                   34.7131                   38.8973                   41.8808                   53.9073                   70.4344                   74.027                    74.2496                   69.1231                   59.3043                   44.911                    24.3516                   99999.0                   22.3607                   32.1403                   46.8402                   58.8218                   74.3303                   86.3134                   96.2133                   101.1385                  103.2327                  97.2471                   92.1303                   83.8153                   79.7621                   78.0064                   73.171                    64.6297                   56.2939                   56.2939                   46.4866                   24.1661                   5.3852                    27.0185                   47.8017                   71.5681                   70.7743                   80.7217                   104.4031                  118.8486                  121.0165                  112.1606                  103.3151                  97.3242                   87.4643                   76.531                    71.5891                   64.846                    50.2494                   49.7393                   
17                        57.3149                   81.7068                   36.7696                   22.8473                   47.8017                   42.2019                   39.0128                   43.382                    58.2495                   66.4831                   71.7008                   71.1758                   65.0                      49.7293                   30.4138                   22.3607                   99999.0                   12.2066                   28.6007                   40.4969                   56.0803                   69.814                    82.9759                   89.8721                   94.8103                   92.0489                   88.295                    83.2166                   83.7257                   84.6463                   81.5966                   74.7329                   68.0955                   68.0955                   60.6053                   41.2311                   27.074                    46.3249                   61.0328                   83.7257                   69.2604                   69.3397                   90.5539                   105.4751                  109.0183                  99.3579                   86.267                    76.6551                   66.2873                   55.5428                   51.6236                   48.8365                   42.72                     47.0956                   
18                        50.1597                   71.8401                   25.0                      23.6008                   49.8197                   39.4462                   33.2415                   33.2415                   47.0106                   56.7539                   64.0                      65.7343                   61.7414                   47.0106                   31.241                    32.1403                   12.2066                   99999.0                   16.4012                   28.3019                   43.909                    57.6281                   71.218                    78.5493                   84.309                    82.7647                   79.6304                   76.1052                   78.848                    81.1542                   79.177                    73.4983                   68.1175                   68.1175                   62.3699                   46.0977                   37.3363                   52.2015                   62.2415                   83.4086                   62.1289                   58.1808                   78.6448                   93.6056                   97.4166                   87.6185                   74.0608                   65.307                    55.3263                   44.4072                   39.8497                   36.7696                   34.0588                   40.6079                   
19                        43.4626                   59.4138                   11.4018                   32.249                    56.0803                   40.8044                   31.1127                   22.3607                   32.573                    45.0111                   55.5428                   60.8276                   60.3075                   47.5079                   38.3275                   46.8402                   28.6007                   16.4012                   99999.0                   12.083                    27.7308                   41.2311                   55.4707                   63.5059                   70.6045                   71.1126                   69.0652                   68.1542                   74.2428                   78.492                    78.1025                   74.2765                   70.8025                   70.8025                   67.5352                   55.7315                   52.2015                   62.514                    66.7308                   85.0412                   54.7083                   43.6578                   62.6259                   77.6209                   81.8352                   71.8471                   57.6888                   51.0882                   42.19                     31.257                    25.0799                   20.6155                   26.4008                   36.0555                   
20                        44.8219                   54.1479                   8.0                       43.0116                   65.0                      47.927                    37.1214                   22.6716                   26.0192                   41.2311                   54.5619                   62.6259                   64.6607                   53.7122                   48.2597                   58.8218                   40.4969                   28.3019                   12.083                    99999.0                   15.6525                   29.6985                   45.618                    54.7083                   63.5059                   66.3702                   65.5134                   67.1193                   75.8024                   81.3941                   82.134                    79.6304                   77.4145                   77.4145                   75.6108                   66.1211                   64.195                    73.0616                   74.4648                   90.6973                   54.7083                   36.2215                   52.1536                   67.1193                   72.0069                   61.7738                   45.8039                   40.05                     32.28                     21.9317                   14.3178                   11.1803                   29.0689                   39.8246                   
21                        50.4777                   50.3289                   20.5183                   57.5587                   77.5242                   59.2284                   48.0521                   30.6757                   24.2074                   40.8044                   56.6392                   67.624                    72.4707                   63.8905                   62.0322                   74.3303                   56.0803                   43.909                    27.7308                   15.6525                   99999.0                   15.6525                   34.5254                   45.0999                   56.3205                   62.6259                   63.5059                   68.4105                   79.9812                   87.0057                   89.0449                   88.1022                   87.3155                   87.3155                   87.0976                   80.0562                   79.712                    87.0919                   85.6154                   99.2824                   58.0                      30.6757                   39.5601                   54.1295                   60.0833                   49.6488                   30.4795                   27.5136                   23.3452                   17.088                    10.0                      12.6491                   37.9473                   48.4665                   
22                        50.9608                   41.4005                   35.805                    67.6757                   84.1487                   65.0308                   54.1479                   36.2215                   22.561                    36.3593                   53.0                      66.2118                   73.7631                   68.1836                   70.8308                   86.3134                   69.814                    57.6281                   41.2311                   29.6985                   15.6525                   99999.0                   20.025                    31.257                    43.9659                   53.0                      55.4437                   63.2535                   77.1751                   85.4225                   88.7694                   89.56                     90.4268                   90.4268                   92.1358                   88.6454                   91.6788                   95.7079                   90.2718                   100.5783                  55.4707                   22.6716                   24.0416                   38.4838                   44.643                    34.2053                   17.088                    29.8329                   31.6228                   30.0167                   25.0                      21.4709                   43.0465                   52.1536                   
23                        48.3735                   27.2947                   52.9245                   75.7166                   86.6833                   67.6757                   58.1808                   42.4382                   25.807                    30.0167                   44.7214                   59.5399                   70.0                      68.6586                   76.9415                   96.2133                   82.9759                   71.218                    55.4707                   45.618                    34.5254                   20.025                    99999.0                   11.4018                   25.0599                   36.7967                   41.0488                   52.0                      68.0074                   77.3692                   82.201                    85.1469                   88.0909                   88.0909                   92.228                    93.6216                   101.4002                  100.4639                  89.9444                   95.5249                   48.3735                   16.7631                   8.544                     22.6716                   26.4197                   16.4012                   22.0227                   47.4236                   51.1957                   50.0                      44.4072                   34.9857                   47.4131                   53.4509                   
24                        48.1041                   21.095                    62.3618                   80.0562                   87.7268                   69.3542                   61.0328                   47.4236                   31.6228                   29.5466                   41.1096                   56.0803                   67.897                    69.0797                   80.2122                   101.1385                  89.8721                   78.5493                   63.5059                   54.7083                   45.0999                   31.257                    11.4018                   99999.0                   14.2127                   27.7849                   33.2415                   45.8912                   62.6498                   72.4431                   78.0577                   82.2192                   86.3134                   86.3134                   91.7606                   95.8801                   106.1508                  102.4744                  89.2861                   92.0054                   45.2769                   20.6155                   13.6015                   20.3961                   20.0                      13.1529                   32.0156                   58.6941                   62.5859                   61.0737                   55.0818                   43.6578                   51.0882                   55.0727                   
25                        45.607                    15.0                      71.4493                   81.8352                   85.1469                   68.1175                   61.6198                   51.4296                   38.0789                   29.2062                   34.9285                   49.0408                   62.0322                   66.2873                   80.6226                   103.2327                  94.8103                   84.309                    70.6045                   63.5059                   56.3205                   43.9659                   25.0599                   14.2127                   99999.0                   15.2971                   22.0227                   36.0555                   53.0377                   63.0714                   69.4622                   74.9533                   80.3243                   80.3243                   87.2353                   94.6414                   107.9352                  100.8018                  84.5813                   83.863                    39.3954                   27.2947                   27.5862                   29.8329                   25.02                     23.7697                   46.2277                   72.45                     75.5844                   72.9932                   66.2722                   52.345                    53.2541                   54.4518                   
26                        37.4433                   12.3693                   74.3303                   76.0592                   75.0733                   59.8164                   55.4707                   49.6488                   40.4475                   26.1725                   24.0416                   36.2353                   49.7393                   56.5685                   73.4983                   97.2471                   92.0489                   82.7647                   71.1126                   66.3702                   62.6259                   53.0                      36.7967                   27.7849                   15.2971                   99999.0                   7.2801                    21.587                    38.3275                   48.3735                   55.109                    61.3514                   67.5426                   67.5426                   75.4718                   85.5862                   101.548                   91.2414                   72.7186                   69.6348                   28.3196                   31.9531                   41.3401                   45.1221                   40.05                     38.8973                   58.7963                   82.662                    84.0773                   79.712                    72.1249                   55.7315                   49.3356                   47.5079                   
27                        32.2025                   14.1421                   73.3485                   71.1758                   68.593                    54.0833                   50.6952                   47.0106                   40.1622                   24.3311                   18.0278                   29.1548                   42.72                     50.3289                   68.0955                   92.1303                   88.295                    79.6304                   69.0652                   65.5134                   63.5059                   55.4437                   41.0488                   33.2415                   22.0227                   7.2801                    99999.0                   14.3178                   31.1448                   41.1947                   47.8539                   54.0833                   60.3738                   60.3738                   68.5055                   79.3977                   96.2549                   84.8646                   65.7343                   62.3699                   22.0227                   33.2866                   46.5188                   51.6236                   47.0                      45.1221                   63.0079                   85.276                    85.7555                   80.5295                   72.6154                   55.3624                   45.7056                   42.5441                   
28                        26.0                      25.0                      74.4648                   63.7887                   57.0088                   44.9444                   44.2832                   45.8803                   44.2041                   27.6586                   12.6491                   16.2788                   29.7321                   39.8246                   59.4643                   83.8153                   83.2166                   76.1052                   68.1542                   67.1193                   68.4105                   63.2535                   52.0                      45.8912                   36.0555                   21.587                    14.3178                   99999.0                   17.0                      27.0185                   33.541                    39.9249                   46.6476                   46.6476                   55.4437                   68.5055                   87.4643                   73.4098                   52.6308                   48.0521                   14.0                      40.6079                   58.5235                   65.192                    61.0737                   58.4209                   73.3553                   92.6984                   91.5478                   84.8764                   76.5506                   58.3095                   42.4264                   36.1248                   
29                        31.0644                   41.5933                   82.3772                   62.0322                   48.4665                   42.0119                   45.607                    53.2541                   56.2228                   40.8167                   24.1868                   13.4164                   20.6155                   35.0571                   56.0803                   79.7621                   83.7257                   78.848                    74.2428                   75.8024                   79.9812                   77.1751                   68.0074                   62.6498                   53.0377                   38.3275                   31.1448                   17.0                      99999.0                   10.0499                   17.088                    25.0                      33.2415                   33.2415                   43.6005                   60.7454                   82.5651                   64.405                    40.8044                   31.6228                   22.0227                   55.0091                   74.9533                   82.1523                   78.0577                   75.326                    88.7694                   105.8017                  103.3247                  95.5249                   87.046                    68.6222                   47.8853                   38.6264                   
30                        36.7967                   51.3517                   87.4586                   62.1691                   44.7214                   42.45                     48.3011                   58.7282                   63.8122                   49.2443                   32.8938                   19.4165                   19.6469                   34.9285                   55.4437                   78.0064                   84.6463                   81.1542                   78.492                    81.3941                   87.0057                   85.4225                   77.3692                   72.4431                   63.0714                   48.3735                   41.1947                   27.0185                   10.0499                   99999.0                   7.8102                    17.2047                   26.4197                   26.4197                   37.5766                   57.0701                   80.2247                   59.7746                   34.9285                   21.9317                   29.9666                   63.6946                   84.5281                   92.0869                   88.0909                   85.2115                   97.7394                   113.4416                  110.2588                  101.9117                  93.4345                   75.1665                   52.6308                   42.4382                   
31                        38.5876                   57.0088                   87.6926                   58.8218                   39.0512                   39.8121                   47.2017                   59.6657                   66.6408                   53.1601                   37.4833                   22.8035                   17.8045                   32.2025                   51.6624                   73.171                    81.5966                   79.177                    78.1025                   82.134                    89.0449                   88.7694                   82.201                    78.0577                   69.4622                   55.109                    47.8539                   33.541                    17.088                    7.8102                    99999.0                   9.8489                    19.3132                   19.3132                   30.6757                   51.2445                   75.0                      53.3667                   28.1603                   14.5602                   33.9559                   67.72                     89.6772                   98.0051                   94.4299                   91.0055                   101.9215                  115.9741                  112.0714                  103.2327                  94.8103                   76.844                    53.0754                   42.4264                   
32                        38.6005                   61.5224                   84.5044                   51.8941                   30.0666                   34.2053                   43.1856                   57.8014                   67.0522                   55.3263                   41.1096                   26.1725                   15.8114                   26.9072                   44.3847                   64.6297                   74.7329                   73.4983                   74.2765                   79.6304                   88.1022                   89.56                     85.1469                   82.2192                   74.9533                   61.3514                   54.0833                   39.9249                   25.0                      17.2047                   9.8489                    99999.0                   9.4868                    9.4868                    20.8806                   42.0119                   66.1211                   43.7379                   18.4391                   11.1803                   37.0135                   69.7209                   93.0215                   102.489                   99.6393                   95.3362                   103.7545                  115.4513                  110.6391                  101.2423                  92.9624                   75.591                    50.774                    39.9625                   
33                        40.05                     66.2193                   81.5414                   45.4863                   21.587                    30.0                      40.3113                   56.648                    67.897                    58.0775                   45.607                    31.3847                   18.4391                   23.7065                   37.7359                   56.2939                   68.0955                   68.1175                   70.8025                   77.4145                   87.3155                   90.4268                   88.0909                   86.3134                   80.3243                   67.5426                   60.3738                   46.6476                   33.2415                   26.4197                   19.3132                   9.4868                    99999.0                   0.0                       11.4018                   33.0606                   57.4282                   34.3657                   9.0554                    15.6525                   41.2311                   72.0069                   96.2549                   106.7052                  104.5466                  99.4636                   105.4751                  114.826                   109.165                   99.2975                   91.236                    74.6726                   49.3964                   38.8973                   
34                        40.05                     66.2193                   81.5414                   45.4863                   21.587                    30.0                      40.3113                   56.648                    67.897                    58.0775                   45.607                    31.3847                   18.4391                   23.7065                   37.7359                   56.2939                   68.0955                   68.1175                   70.8025                   77.4145                   87.3155                   90.4268                   88.0909                   86.3134                   80.3243                   67.5426                   60.3738                   46.6476                   33.2415                   26.4197                   19.3132                   9.4868                    0.0                       99999.0                   11.4018                   33.0606                   57.4282                   34.3657                   9.0554                    15.6525                   41.2311                   72.0069                   96.2549                   106.7052                  104.5466                  99.4636                   105.4751                  114.826                   109.165                   99.2975                   91.236                    74.6726                   49.3964                   38.8973                   
35                        43.9318                   72.6154                   78.721                    38.8973                   12.8062                   27.8927                   39.0512                   56.7186                   70.0                      62.5859                   52.3259                   39.4081                   25.807                    24.0                      31.1448                   46.4866                   60.6053                   62.3699                   67.5352                   75.6108                   87.0976                   92.1358                   92.228                    91.7606                   87.2353                   75.4718                   68.5055                   55.4437                   43.6005                   37.5766                   30.6757                   20.8806                   11.4018                   11.4018                   99999.0                   22.561                    47.0744                   23.0868                   2.8284                    25.318                    47.8539                   75.6637                   100.6231                  112.0893                  110.7249                  104.8094                  108.0046                  114.4771                  107.8378                  97.4987                   89.8109                   74.5252                   49.4975                   40.0125                   
36                        49.0408                   79.6492                   67.082                    23.5372                   12.3693                   26.6271                   35.4683                   52.6308                   68.6222                   66.5733                   61.5549                   52.4786                   40.3113                   29.0689                   18.0278                   24.1661                   41.2311                   46.0977                   55.7315                   66.1211                   80.0562                   88.6454                   93.6216                   95.8801                   94.6414                   85.5862                   79.3977                   68.5055                   60.7454                   57.0701                   51.2445                   42.0119                   33.0606                   33.0606                   22.561                    99999.0                   24.5153                   7.0711                    24.1868                   47.8539                   57.3847                   76.9675                   102.1567                  115.382                   115.7627                  108.2405                  105.5367                  106.1697                  97.8673                   86.977                    80.3057                   68.3593                   46.4866                   40.8167                   
37                        64.1405                   93.4077                   62.1691                   26.1725                   36.0555                   42.5441                   46.4004                   59.0339                   75.6042                   78.7464                   78.2943                   72.4224                   61.9839                   48.0833                   28.178                    5.3852                    27.074                    37.3363                   52.2015                   64.195                    79.712                    91.6788                   101.4002                  106.1508                  107.9352                  101.548                   96.2549                   87.4643                   82.5651                   80.2247                   75.0                      66.1211                   57.4282                   57.4282                   47.0744                   24.5153                   99999.0                   25.9422                   48.6621                   72.3671                   74.686                    85.7963                   109.6221                  124.0161                  126.0635                  117.2902                  108.6876                  102.5914                  92.6553                   81.7435                   76.9025                   70.214                    55.1543                   54.0833                   
38                        55.2178                   85.8021                   73.8241                   30.2655                   16.4012                   33.121                    42.3792                   59.6657                   75.5844                   73.0616                   67.2086                   57.2014                   44.4185                   34.7131                   25.0799                   27.0185                   46.3249                   52.2015                   62.514                    73.0616                   87.0919                   95.7079                   100.4639                  102.4744                  100.8018                  91.2414                   84.8646                   73.4098                   64.405                    59.7746                   53.3667                   43.7379                   34.3657                   34.3657                   23.0868                   7.0711                    25.9422                   99999.0                   25.318                    48.0416                   62.9365                   83.7735                   109.0046                  122.1024                  122.2988                  114.9348                  112.5877                  113.1106                  104.69                    93.771                    87.2067                   75.4255                   53.4509                   47.4131                   
39                        41.5933                   70.0071                   77.8267                   38.9487                   13.4164                   26.5707                   37.6431                   55.109                    68.0294                   60.208                    49.6588                   36.6197                   23.0217                   22.0907                   31.1448                   47.8017                   61.0328                   62.2415                   66.7308                   74.4648                   85.6154                   90.2718                   89.9444                   89.2861                   84.5813                   72.7186                   65.7343                   52.6308                   40.8044                   34.9285                   28.1603                   18.4391                   9.0554                    9.0554                    2.8284                    24.1868                   48.6621                   25.318                    99999.0                   23.7697                   45.1885                   73.437                    98.3107                   109.6358                  108.1665                  102.3572                  106.0047                  113.0531                  106.6255                  96.3846                   88.6002                   73.0068                   47.8539                   38.1182                   
40                        49.6488                   71.0634                   95.4254                   61.0574                   37.0                      44.5533                   54.037                    68.9638                   78.1089                   65.9242                   51.0392                   36.0555                   26.9258                   37.5366                   53.3385                   71.5681                   83.7257                   83.4086                   85.0412                   90.6973                   99.2824                   100.5783                  95.5249                   92.0054                   83.863                    69.6348                   62.3699                   48.0521                   31.6228                   21.9317                   14.5602                   11.1803                   15.6525                   15.6525                   25.318                    47.8539                   72.3671                   48.0416                   23.7697                   99999.0                   47.1699                   80.4114                   103.2376                  112.1116                  108.7796                  105.0428                  114.5426                  126.6254                  121.8031                  112.361                   104.1009                  86.7698                   61.9112                   51.1077                   
41                        12.0                      25.0                      61.7171                   50.2892                   46.7547                   32.249                    30.4138                   32.6956                   34.2053                   19.3132                   4.4721                    11.1803                   22.8035                   28.3196                   46.5188                   70.7743                   69.2604                   62.1289                   54.7083                   54.7083                   58.0                      55.4707                   48.3735                   45.2769                   39.3954                   28.3196                   22.0227                   14.0                      22.0227                   29.9666                   33.9559                   37.0135                   41.2311                   41.2311                   47.8539                   57.3847                   74.686                    62.9365                   45.1885                   47.1699                   99999.0                   33.8378                   56.0803                   65.6201                   63.3246                   58.4209                   68.0074                   83.8153                   81.3449                   73.7564                   65.2993                   46.8615                   28.6356                   22.2036                   
42                        32.0156                   19.6977                   44.1814                   59.8164                   69.9214                   50.9215                   41.5933                   26.8701                   11.1803                   14.5602                   30.8707                   44.9222                   54.231                    51.9711                   60.5392                   80.7217                   69.3397                   58.1808                   43.6578                   36.2215                   30.6757                   22.6716                   16.7631                   20.6155                   27.2947                   31.9531                   33.2866                   40.6079                   55.0091                   63.6946                   67.72                     69.7209                   72.0069                   72.0069                   75.6637                   76.9675                   85.7963                   83.7735                   73.437                    80.4114                   33.8378                   99999.0                   25.2982                   38.5876                   40.3113                   31.6228                   34.2053                   52.345                    52.4786                   47.7598                   40.2616                   25.0799                   31.0644                   36.6879                   
43                        56.7186                   33.5261                   59.0593                   84.0595                   95.2103                   76.2168                   66.7083                   50.774                    34.1321                   38.2099                   52.2398                   67.1863                   78.0577                   77.1298                   85.4225                   104.4031                  90.5539                   78.6448                   62.6259                   52.1536                   39.5601                   24.0416                   8.544                     13.6015                   27.5862                   41.3401                   46.5188                   58.5235                   74.9533                   84.5281                   89.6772                   93.0215                   96.2549                   96.2549                   100.6231                  102.1567                  109.6221                  109.0046                  98.3107                   103.2376                  56.0803                   25.2982                   99999.0                   15.0                      20.6155                   10.198                    19.2354                   47.5395                   53.0848                   53.6004                   49.0408                   42.0119                   55.9017                   61.9839                   
44                        68.3081                   41.0488                   73.9256                   98.2293                   107.7033                  89.0505                   80.1311                   65.0                      48.4149                   49.6488                   61.4003                   76.3217                   88.2836                   89.1964                   99.1262                   118.8486                  105.4751                  93.6056                   77.6209                   67.1193                   54.1295                   38.4838                   22.6716                   20.3961                   29.8329                   45.1221                   51.6236                   65.192                    82.1523                   92.0869                   98.0051                   102.489                   106.7052                  106.7052                  112.0893                  115.382                   124.0161                  122.1024                  109.6358                  112.1116                  65.6201                   38.5876                   15.0                      99999.0                   8.9443                    7.2801                    29.0                      58.0775                   65.2763                   67.1863                   63.3246                   57.0088                   69.6419                   74.7329                   
45                        67.5426                   38.3275                   79.2023                   100.005                   107.3313                  89.1852                   81.0247                   67.1789                   50.9902                   49.2443                   58.9406                   73.5459                   86.1278                   88.5664                   100.2098                  121.0165                  109.0183                  97.4166                   81.8352                   72.0069                   60.0833                   44.643                    26.4197                   20.0                      25.02                     40.05                     47.0                      61.0737                   78.0577                   88.0909                   94.4299                   99.6393                   104.5466                  104.5466                  110.7249                  115.7627                  126.0635                  122.2988                  108.1665                  108.7796                  63.3246                   40.3113                   20.6155                   8.9443                    99999.0                   10.4403                   37.2156                   66.3702                   73.0274                   74.1485                   69.6419                   61.4003                   71.0634                   74.9466                   
46                        61.0328                   34.0                      68.8767                   91.4002                   100.4639                  81.8596                   73.0616                   58.258                    41.7732                   42.3792                   54.231                    69.1809                   81.0494                   81.9329                   92.1141                   112.1606                  99.3579                   87.6185                   71.8471                   61.7738                   49.6488                   34.2053                   16.4012                   13.1529                   23.7697                   38.8973                   45.1221                   58.4209                   75.326                    85.2115                   91.0055                   95.3362                   99.4636                   99.4636                   104.8094                  108.2405                  117.2902                  114.9348                  102.3572                  105.0428                  58.4209                   31.6228                   10.198                    7.2801                    10.4403                   99999.0                   27.8927                   56.8859                   63.0079                   63.7887                   59.203                    51.3128                   62.6817                   67.5426                   
47                        65.4905                   49.0918                   50.9313                   84.7585                   100.6032                  81.3941                   70.7107                   52.9528                   38.0132                   48.7647                   64.846                    79.1202                   88.1192                   84.006                    87.8009                   103.3151                  86.267                    74.0608                   57.6888                   45.8039                   30.4795                   17.088                    22.0227                   32.0156                   46.2277                   58.7963                   63.0079                   73.3553                   88.7694                   97.7394                   101.9215                  103.7545                  105.4751                  105.4751                  108.0046                  105.5367                  108.6876                  112.5877                  106.0047                  114.5426                  68.0074                   34.2053                   19.2354                   29.0                      37.2156                   27.8927                   99999.0                   29.1548                   36.4966                   39.8121                   37.8021                   38.4838                   59.5399                   68.0294                   
48                        77.4145                   71.218                    40.4475                   83.006                    104.561                   86.5852                   75.4321                   58.1893                   49.6488                   65.2993                   81.8352                   94.0319                   99.7447                   91.3947                   88.278                    97.3242                   76.6551                   65.307                    51.0882                   40.05                     27.5136                   29.8329                   47.4236                   58.6941                   72.45                     82.662                    85.276                    92.6984                   105.8017                  113.4416                  115.9741                  115.4513                  114.826                   114.826                   114.4771                  106.1697                  102.5914                  113.1106                  113.0531                  126.6254                  83.8153                   52.345                    47.5395                   58.0775                   66.3702                   56.8859                   29.1548                   99999.0                   11.4018                   21.1896                   26.0192                   40.1622                   65.4599                   75.9605                   
49                        73.6003                   72.0694                   31.0161                   74.4312                   97.2677                   80.0562                   69.0797                   52.8394                   47.4236                   63.8905                   79.9312                   90.9065                   95.1893                   85.4927                   80.2309                   87.4643                   66.2873                   55.3263                   42.19                     32.28                     23.3452                   31.6228                   51.1957                   62.5859                   75.5844                   84.0773                   85.7555                   91.5478                   103.3247                  110.2588                  112.0714                  110.6391                  109.165                   109.165                   107.8378                  97.8673                   92.6553                   104.69                    106.6255                  121.8031                  81.3449                   52.4786                   53.0848                   65.2763                   73.0274                   63.0079                   36.4966                   11.4018                   99999.0                   11.0                      18.0278                   35.2278                   59.9416                   70.7107                   
50                        65.1153                   67.4166                   20.025                    63.5059                   86.6833                   69.857                    59.0339                   43.6005                   40.8167                   57.4543                   72.8011                   82.7345                   86.0233                   75.591                    69.4262                   76.531                    55.5428                   44.4072                   31.257                    21.9317                   17.088                    30.0167                   50.0                      61.0737                   72.9932                   79.712                    80.5295                   84.8764                   95.5249                   101.9117                  103.2327                  101.2423                  99.2975                   99.2975                   97.4987                   86.977                    81.7435                   93.771                    96.3846                   112.361                   73.7564                   47.7598                   53.6004                   67.1863                   74.1485                   63.7887                   39.8121                   21.1896                   11.0                      99999.0                   8.4853                    26.9072                   50.4777                   61.2944                   
51                        56.6392                   59.7746                   14.8661                   57.0351                   79.3095                   62.0322                   51.0784                   35.2278                   32.6497                   49.2443                   64.405                    74.2496                   77.666                    67.5426                   62.514                    71.5891                   51.6236                   39.8497                   25.0799                   14.3178                   10.0                      25.0                      44.4072                   55.0818                   66.2722                   72.1249                   72.6154                   76.5506                   87.046                    93.4345                   94.8103                   92.9624                   91.236                    91.236                    89.8109                   80.3057                   76.9025                   87.2067                   88.6002                   104.1009                  65.2993                   40.2616                   49.0408                   63.3246                   69.6419                   59.203                    37.8021                   26.0192                   18.0278                   8.4853                    99999.0                   18.4391                   42.19                     53.0                      
52                        38.4187                   43.4166                   19.105                    46.5725                   65.192                    46.6905                   35.5106                   18.0278                   15.2971                   31.3847                   46.0435                   55.9017                   60.0333                   51.2445                   50.3587                   64.846                    48.8365                   36.7696                   20.6155                   11.1803                   12.6491                   21.4709                   34.9857                   43.6578                   52.345                    55.7315                   55.3624                   58.3095                   68.6222                   75.1665                   76.844                    75.591                    74.6726                   74.6726                   74.5252                   68.3593                   70.214                    75.4255                   73.0068                   86.7698                   46.8615                   25.0799                   42.0119                   57.0088                   61.4003                   51.3128                   38.4838                   40.1622                   35.2278                   26.9072                   18.4391                   99999.0                   25.2982                   35.8469                   
53                        17.088                    39.3573                   34.8281                   29.0                      41.1096                   22.0                      11.1803                   7.2801                    22.1359                   24.1868                   30.0666                   34.4819                   35.609                    25.9615                   29.5296                   50.2494                   42.72                     34.0588                   26.4008                   29.0689                   37.9473                   43.0465                   47.4131                   51.0882                   53.2541                   49.3356                   45.7056                   42.4264                   47.8853                   52.6308                   53.0754                   50.774                    49.3964                   49.3964                   49.4975                   46.4866                   55.1543                   53.4509                   47.8539                   61.9112                   28.6356                   31.0644                   55.9017                   69.6419                   71.0634                   62.6817                   59.5399                   65.4599                   59.9416                   50.4777                   42.19                     25.2982                   99999.0                   10.8167                   
54                        10.4403                   39.6232                   45.2769                   28.6356                   33.2415                   14.3178                   8.2462                    17.8885                   30.0167                   25.807                    25.0                      25.2982                   24.8395                   16.0312                   26.2488                   49.7393                   47.0956                   40.6079                   36.0555                   39.8246                   48.4665                   52.1536                   53.4509                   55.0727                   54.4518                   47.5079                   42.5441                   36.1248                   38.6264                   42.4382                   42.4264                   39.9625                   38.8973                   38.8973                   40.0125                   40.8167                   54.0833                   47.4131                   38.1182                   51.1077                   22.2036                   36.6879                   61.9839                   74.7329                   74.9466                   67.5426                   68.0294                   75.9605                   70.7107                   61.2944                   53.0                      35.8469                   10.8167                   99999.0                   
;
SCALAR TOTAL  /54/;
SCALAR NODES  /50/;
SCALAR W  /1/;
SCALAR Y  /54/;
SCALAR M  /1/;
BINARY VARIABLE X(I,J,K)  x variable ;
INTEGER VARIABLE U(K,O)    u variable ;
VARIABLE   Z         objective ;
EQUATIONS
CON1(K)   constraint 1
CON2(K)   constraint 2
CON3   constraint 3
CON4(O)   constraint 4
CON5(O,K)   constraint 5
CON6(O,K)   constraint 6
CON7(K)   constraint 7
CON10(O,P,K)   constraint 10
CON11(O,K)   constraint 11;
CON1(K).. SUM(O,X(K,O,K)) =E= 1;
CON2(K).. SUM(O,X(O,K,K)) =E= 1;
CON3..  SUM((K,L),X(K,L,K)) =E= 0;
CON4(O) .. SUM(K,X(K,O,K)) + SUM((P,K),X(P,O,K)) =e= W;
CON5(O,K) .. X(K,O,K) + SUM(P,X(P,O,K)) =L= 1;
CON6(O,K) .. X(K,O,K) + SUM(P,X(P,O,K)) - X(O,K,K) - SUM(P,X(O,P,K)) =e= 0;
CON7(K) .. Z =G= SUM(O,C(K,O)*X(K,O,K) + C(O,K)*X(O,K,K)) + SUM((P,O),C(P,O)*X(P,O,K));
CON10(O,P,K) .. U(K,O) - U(K,P) + (TOTAL-1)*X(O,P,K) + (TOTAL-3)*X(P,O,K) =L= (TOTAL-2);
CON11(O,K) .. X(O,O,K) =e= 0;
MODEL TRANSPORT /ALL/;
SOLVE TRANSPORT USING MIP MINIMIZING Z ;
